0.004073
0.001650
0.001650
0.006496
0.006496
0.006496
0.004073
0.004073
0.008920
0.013766
0.018613
-0.020160
-0.068627
-0.121940
-0.194640
-0.230990
-0.180100
-0.097707
-0.034700
-0.005620
0.001650
0.006496
0.008920
0.008920
0.013766
0.013766
0.011343
0.016190
0.016190
0.018613
0.018613
0.018613
0.021036
0.021036
0.021036
0.025883
0.028306
0.033153
0.033153
0.035576
0.038000
0.033153
0.035576
0.035576
0.030730
0.028306
0.021036
0.018613
0.016190
0.011343
0.011343
0.006496
0.008920
0.008920
0.006496
0.008920
0.006496
0.008920
0.008920
0.006496
0.013766
0.013766
-0.032277
-0.083167
-0.143750
-0.175253
-0.148597
-0.075897
-0.020160
0.001650
0.013766
0.011343
0.018613
0.018613
0.013766
0.016190
0.013766
0.016190
0.013766
0.013766
0.016190
0.018613
0.021036
0.025883
0.028306
0.033153
0.033153
0.035576
0.040423
0.035576
0.035576
0.033153
0.028306
0.028306
0.021036
0.016190
0.013766
0.008920
0.008920
0.004073
0.006496
0.004073
0.004073
0.006496
0.004073
0.006496
0.008920
0.008920
0.011343
0.013766
0.016190
0.018613
0.016190
0.016190
0.016190
0.011343
0.016190
0.006496
-0.034700
-0.083167
-0.141327
-0.194640
-0.192217
-0.119517
-0.054087
-0.010467
0.004073
0.008920
0.011343
0.018613
0.013766
0.016190
0.013766
0.013766
0.016190
0.013766
0.018613
0.021036
0.018613
0.025883
0.028306
0.033153
0.035576
0.042846
0.047693
0.045270
0.047693
0.045270
0.038000
0.035576
0.025883
0.023460
0.016190
0.011343
0.008920
0.004073
0.001650
0.004073
0.001650
0.004073
0.004073
0.004073
0.006496
0.006496
0.011343
0.008920
0.008920
0.021036
0.021036
-0.027430
-0.075897
-0.148597
-0.211603
-0.209180
-0.121940
-0.054087
-0.010467
0.004073
0.006496
0.011343
0.016190
0.013766
0.016190
0.018613
0.018613
0.021036
0.021036
0.025883
0.025883
0.028306
0.030730
0.033153
0.035576
0.042846
0.045270
0.050116
0.047693
0.047693
0.045270
0.038000
0.035576
0.025883
0.018613
0.013766
0.006496
0.004073
0.006496
0.004073
0.006496
0.004073
0.004073
0.008920
0.006496
0.011343
0.011343
0.011343
0.016190
0.016190
0.018613
0.013766
0.011343
0.011343
0.008920
0.011343
0.008920
0.006496
0.008920
0.006496
0.004073
0.011343
0.011343
0.013766
-0.027430
-0.073474
-0.136480
-0.194640
-0.194640
-0.124363
-0.058934
-0.010467
0.008920
0.011343
0.013766
0.018613
0.018613
0.018613
0.016190
0.013766
0.011343
0.008920
0.011343
0.013766
0.013766
0.016190
0.016190
0.021036
0.025883
0.025883
0.028306
0.030730
0.030730
0.035576
0.030730
0.033153
0.030730
0.023460
0.021036
0.016190
0.016190
0.016190
0.011343
0.013766
0.008920
0.008920
0.004073
0.001650
0.001650
0.001650
0.001650
0.001650
0.001650
0.001650
0.001650
0.004073
0.006496
0.004073
0.006496
0.004073
0.006496
0.011343
0.016190
-0.008044
-0.061357
-0.112247
-0.187370
-0.221297
-0.177677
-0.090437
-0.027430
0.001650
0.008920
0.008920
0.013766
0.013766
0.013766
0.013766
0.013766
0.016190
0.011343
0.016190
0.016190
0.018613
0.021036
0.021036
0.025883
0.028306
0.030730
0.040423
0.040423
0.045270
0.050116
0.047693
0.047693
0.040423
0.030730
0.023460
0.013766
0.011343
0.004073
0.004073
0.004073
0.001650
0.001650
0.006496
0.004073
0.006496
0.004073
0.006496
0.006496
0.006496
0.008920
0.011343
0.011343
0.016190
0.016190
0.021036
0.021036
0.016190
0.016190
0.011343
0.011343
0.008920
0.006496
0.008920
0.006496
0.006496
0.011343
0.013766
0.008920
-0.044394
-0.092860
-0.151020
-0.214027
-0.216450
-0.141327
-0.063780
-0.015314
0.004073
0.008920
0.013766
0.018613
0.016190
0.021036
0.018613
0.016190
0.018613
0.016190
0.018613
0.016190
0.016190
0.021036
0.018613
0.025883
0.025883
0.028306
0.035576
0.035576
0.038000
0.038000
0.040423
0.040423
0.038000
0.033153
0.028306
0.023460
0.021036
0.018613
0.013766
0.008920
0.006496
0.001650
0.001650
0.001650
0.001650
0.001650
0.001650
0.001650
0.001650
0.001650
0.001650
0.006496
0.008920
0.018613
-0.005620
-0.061357
-0.114670
-0.187370
-0.211603
-0.146173
-0.063780
-0.012890
0.004073
0.011343
0.011343
0.016190
0.011343
0.013766
0.016190
0.016190
0.018613
0.021036
0.021036
0.023460
0.023460
0.023460
0.025883
0.028306
0.035576
0.038000
0.040423
0.047693
0.047693
0.047693
0.045270
0.042846
0.038000
0.028306
0.018613
0.013766
0.006496
0.006496
0.001650
0.004073
0.001650
0.001650
0.001650
0.001650
0.004073
0.004073
0.006496
0.011343
0.011343
0.013766
0.016190
0.018613
0.021036
0.021036
0.021036
0.016190
0.011343
0.016190
0.018613
0.001650
-0.051664
-0.104977
-0.172830
-0.214027
-0.189793
-0.104977
-0.037124
0.001650
0.008920
0.011343
0.016190
0.013766
0.016190
0.018613
0.016190
0.023460
0.023460
0.025883
0.028306
0.021036
0.021036
0.021036
0.021036
0.025883
0.028306
0.030730
0.033153
0.033153
0.038000
0.033153
0.035576
0.030730
0.025883
0.025883
0.018613
0.016190
0.013766
0.011343
0.013766
0.008920
0.008920
0.004073
0.001650
0.004073
0.001650
0.001650
0.006496
0.004073
0.006496
0.006496
0.006496
0.011343
0.008920
0.011343
0.008920
0.011343
0.013766
0.011343
0.013766
0.011343
0.008920
0.008920
0.008920
0.008920
0.006496
0.004073
0.006496
0.006496
0.006496
0.008920
0.006496
0.006496
0.006496
0.004073
0.006496
0.004073
0.004073
0.001650
0.006496
0.016190
0.001650
-0.044394
-0.092860
-0.160713
-0.221297
-0.218873
-0.138903
-0.058934
-0.010467
0.006496
0.008920
0.013766
0.018613
0.013766
0.018613
0.013766
0.013766
0.013766
0.013766
0.016190
0.016190
0.016190
0.021036
0.018613
0.023460
0.023460
0.023460
0.025883
0.023460
0.025883
0.028306
0.028306
0.030730
0.028306
0.023460
0.018613
0.016190
0.016190
0.013766
0.006496
0.006496
0.004073
0.004073
0.001650
0.001650
0.004073
0.001650
0.001650
0.001650
0.001650
0.001650
-0.000774
0.001650
0.001650
0.004073
0.008920
0.008920
0.011343
0.011343
0.011343
0.016190
0.016190
0.011343
0.011343
0.008920
0.011343
0.011343
0.008920
0.008920
0.008920
0.011343
-0.022584
-0.075897
-0.131633
-0.197063
-0.214027
-0.153443
-0.078320
-0.020160
0.004073
0.008920
0.013766
0.018613
0.016190
0.018613
0.018613
0.018613
0.018613
0.016190
0.018613
0.021036
0.021036
0.025883
0.023460
0.025883
0.028306
0.030730
0.035576
0.040423
0.042846
0.047693
0.042846
0.042846
0.035576
0.025883
0.018613
0.011343
0.006496
0.008920
0.004073
0.004073
0.001650
0.001650
0.004073
0.004073
0.006496
0.004073
0.004073
0.006496
0.006496
0.008920
0.011343
0.008920
0.016190
0.013766
0.018613
0.018613
0.013766
0.016190
0.016190
0.016190
0.013766
0.013766
0.013766
0.008920
0.011343
0.021036
-0.015314
-0.073474
-0.124363
-0.199487
-0.238260
-0.194640
-0.100130
-0.032277
0.001650
0.013766
0.018613
0.023460
0.021036
0.023460
0.021036
0.018613
0.018613
0.018613
0.016190
0.018613
0.018613
0.023460
0.021036
0.023460
0.030730
0.030730
0.038000
0.042846
0.042846
0.045270
0.045270
0.047693
0.045270
0.038000
0.035576
0.028306
0.023460
0.018613
0.008920
0.004073
0.001650
0.001650
0.001650
0.001650
0.001650
0.001650
0.001650
0.001650
0.001650
0.006496
0.006496
0.006496
0.006496
0.006496
0.008920
0.011343
0.011343
0.013766
0.013766
0.016190
0.018613
0.013766
0.016190
0.013766
0.008920
0.018613
0.006496
-0.049240
-0.100130
-0.163137
-0.218873
-0.211603
-0.126787
-0.054087
-0.008044
0.006496
0.008920
0.011343
0.013766
0.008920
0.013766
0.013766
0.016190
0.018613
0.018613
0.021036
0.021036
0.013766
0.013766
0.016190
0.018613
0.023460
0.028306
0.033153
0.035576
0.038000
0.040423
0.038000
0.038000
0.033153
0.030730
0.023460
0.016190
0.013766
0.008920
0.008920
0.008920
0.004073
0.008920
0.006496
0.006496
0.006496
0.001650
0.001650
0.001650
-0.000774
-0.000774
-0.000774
0.001650
0.004073
0.004073
0.006496
0.006496
0.004073
0.006496
0.006496
0.008920
0.008920
0.004073
0.008920
0.008920
0.011343
0.011343
0.011343
0.011343
0.008920
0.008920
0.008920
0.004073
0.006496
0.001650
0.001650
0.004073
0.001650
0.004073
0.006496
0.006496
-0.032277
-0.083167
-0.136480
-0.211603
-0.243106
-0.187370
-0.095283
-0.029854
0.001650
0.011343
0.018613
0.023460
0.018613
0.018613
0.013766
0.013766
0.013766
0.013766
0.018613
0.018613
0.013766
0.018613
0.018613
0.023460
0.025883
0.025883
0.033153
0.030730
0.033153
0.038000
0.035576
0.040423
0.038000
0.035576
0.033153
0.030730
0.025883
0.018613
0.016190
0.008920
0.004073
0.001650
0.001650
-0.000774
0.001650
0.001650
-0.000774
0.001650
0.001650
0.001650
0.001650
0.001650
0.004073
0.001650
0.004073
0.011343
0.011343
0.016190
0.016190
0.013766
0.016190
0.018613
0.018613
-0.027430
-0.083167
-0.146173
-0.204333
-0.204333
-0.126787
-0.054087
-0.008044
0.008920
0.011343
0.013766
0.016190
0.013766
0.016190
0.018613
0.016190
0.021036
0.021036
0.021036
0.023460
0.025883
0.028306
0.025883
0.028306
0.033153
0.028306
0.033153
0.028306
0.033153
0.033153
0.030730
0.030730
0.028306
0.023460
0.021036
0.013766
0.013766
0.008920
0.011343
0.011343
0.006496
0.006496
0.008920
0.006496
0.008920
0.008920
0.011343
0.011343
0.011343
0.016190
0.013766
0.011343
0.011343
0.008920
0.016190
0.001650
-0.054087
-0.104977
-0.177677
-0.218873
-0.180100
-0.092860
-0.032277
0.001650
0.011343
0.013766
0.021036
0.021036
0.018613
0.023460
0.018613
0.021036
0.021036
0.023460
0.023460
0.021036
0.023460
0.021036
0.021036
0.025883
0.025883
0.030730
0.035576
0.038000
0.040423
0.040423
0.038000
0.035576
0.030730
0.028306
0.023460
0.013766
0.016190
0.013766
0.013766
0.013766
0.011343
0.011343
0.008920
0.006496
0.006496
0.006496
0.011343
-0.017737
-0.066204
-0.117093
-0.175253
-0.184947
-0.121940
-0.054087
-0.008044
0.006496
0.013766
0.013766
0.016190
0.016190
0.016190
0.018613
0.016190
0.021036
0.018613
0.021036
0.025883
0.023460
0.023460
0.023460
0.023460
0.023460
0.023460
0.028306
0.028306
0.028306
0.028306
0.023460
0.021036
0.018613
0.013766
0.011343
0.008920
0.001650
0.004073
0.001650
0.004073
0.006496
0.004073
0.006496
0.004073
0.006496
0.006496
0.001650
0.004073
0.001650
0.004073
0.004073
0.001650
0.006496
0.001650
0.004073
0.006496
0.004073
0.008920
0.008920
0.006496
0.006496
0.004073
0.006496
0.004073
0.006496
0.008920
0.006496
0.008920
0.008920
0.008920
0.013766
0.013766
0.011343
0.013766
0.011343
0.013766
0.011343
0.006496
0.006496
0.011343
-0.017737
-0.063780
-0.112247
-0.182523
-0.218873
-0.182523
-0.095283
-0.032277
-0.000774
0.004073
0.008920
0.013766
0.008920
0.013766
0.013766
0.016190
0.018613
0.018613
0.023460
0.023460
0.021036
0.028306
0.028306
0.033153
0.038000
0.035576
0.038000
0.038000
0.035576
0.033153
0.030730
0.033153
0.030730
0.025883
0.025883
0.021036
0.016190
0.013766
0.011343
0.008920
0.006496
0.008920
0.008920
0.008920
0.008920
0.006496
0.011343
0.008920
0.011343
0.008920
0.006496
0.008920
0.006496
0.004073
0.008920
0.008920
0.008920
0.013766
0.013766
0.021036
0.006496
-0.044394
-0.092860
-0.167983
-0.204333
-0.165560
-0.083167
-0.022584
0.004073
0.016190
0.016190
0.018613
0.016190
0.016190
0.013766
0.011343
0.011343
0.011343
0.011343
0.016190
0.013766
0.021036
0.018613
0.021036
0.025883
0.028306
0.033153
0.035576
0.035576
0.040423
0.040423
0.042846
0.040423
0.033153
0.025883
0.016190
0.011343
0.008920
0.001650
0.001650
0.001650
0.001650
0.001650
0.001650
0.004073
0.001650
0.004073
0.004073
0.006496
0.008920
0.011343
0.011343
0.016190
0.016190
0.013766
-0.029854
-0.078320
-0.143750
-0.197063
-0.189793
-0.107400
-0.046817
-0.010467
0.001650
0.004073
0.006496
0.006496
0.008920
0.008920
0.008920
0.013766
0.011343
0.008920
0.013766
0.013766
0.013766
0.018613
0.018613
0.023460
0.025883
0.030730
0.035576
0.035576
0.040423
0.035576
0.033153
0.025883
0.023460
0.021036
0.016190
0.008920
0.011343
0.006496
0.008920
0.006496
0.004073
0.006496
0.001650
0.001650
0.004073
0.001650
0.004073
0.008920
0.006496
0.008920
0.008920
0.011343
0.008920
0.006496
0.008920
0.008920
0.011343
0.008920
-0.032277
-0.075897
-0.131633
-0.184947
-0.175253
-0.100130
-0.039547
-0.003197
0.008920
0.011343
0.013766
0.016190
0.013766
0.018613
0.018613
0.016190
0.016190
0.013766
0.016190
0.016190
0.018613
0.021036
0.021036
0.025883
0.030730
0.030730
0.035576
0.035576
0.038000
0.040423
0.038000
0.035576
0.033153
0.025883
0.023460
0.016190
0.011343
0.011343
0.006496
0.008920
0.004073
0.004073
0.004073
0.004073
0.008920
0.008920
0.006496
0.011343
0.011343
0.013766
0.013766
0.011343
0.013766
0.011343
0.011343
0.013766
0.016190
0.016190
-0.029854
-0.078320
-0.136480
-0.194640
-0.192217
-0.109823
-0.044394
-0.005620
0.008920
0.016190
0.013766
0.018613
0.016190
0.016190
0.021036
0.018613
0.021036
0.018613
0.021036
0.021036
0.018613
0.023460
0.023460
0.025883
0.030730
0.033153
0.038000
0.040423
0.040423
0.042846
0.040423
0.042846
0.038000
0.030730
0.025883
0.021036
0.016190
0.013766
0.008920
0.008920
0.004073
0.001650
0.004073
0.001650
0.001650
0.004073
0.001650
0.006496
0.006496
0.006496
0.008920
0.006496
0.011343
0.013766
0.013766
0.023460
-0.003197
-0.056510
-0.104977
-0.175253
-0.199487
-0.134057
-0.058934
-0.015314
0.004073
0.013766
0.011343
0.013766
0.011343
0.011343
0.016190
0.011343
0.018613
0.016190
0.016190
0.018613
0.016190
0.018613
0.021036
0.023460
0.028306
0.028306
0.033153
0.033153
0.035576
0.038000
0.035576
0.035576
0.030730
0.023460
0.023460
0.016190
0.011343
0.008920
0.004073
0.004073
0.001650
0.001650
0.001650
0.001650
0.001650
0.001650
0.001650
0.006496
0.006496
0.011343
0.011343
0.011343
0.016190
0.016190
0.016190
0.013766
0.011343
0.013766
0.011343
0.001650
-0.044394
-0.088013
-0.151020
-0.201910
-0.187370
-0.107400
-0.044394
-0.005620
0.006496
0.008920
0.013766
0.016190
0.013766
0.016190
0.016190
0.018613
0.016190
0.011343
0.013766
0.011343
0.011343
0.016190
0.018613
0.021036
0.023460
0.025883
0.030730
0.030730
0.035576
0.035576
0.030730
0.030730
0.023460
0.021036
0.018613
0.013766
0.013766
0.008920
0.008920
0.006496
0.004073
0.004073
0.001650
0.004073
0.006496
0.004073
0.006496
0.004073
0.004073
0.006496
0.006496
0.011343
0.011343
0.011343
0.013766
0.016190
-0.020160
-0.071050
-0.126787
-0.187370
-0.189793
-0.114670
-0.046817
-0.008044
0.006496
0.011343
0.011343
0.013766
0.011343
0.013766
0.013766
0.013766
0.016190
0.013766
0.013766
0.016190
0.016190
0.018613
0.016190
0.018613
0.025883
0.025883
0.030730
0.030730
0.028306
0.033153
0.030730
0.033153
0.028306
0.018613
0.018613
0.011343
0.013766
0.008920
0.004073
0.008920
0.006496
0.001650
0.004073
0.001650
0.001650
0.001650
0.001650
0.004073
0.001650
0.004073
0.006496
0.006496
0.013766
0.011343
-0.032277
-0.080744
-0.141327
-0.197063
-0.184947
-0.104977
-0.044394
-0.008044
0.006496
0.008920
0.011343
0.016190
0.013766
0.013766
0.013766
0.011343
0.016190
0.008920
0.013766
0.013766
0.013766
0.018613
0.018613
0.023460
0.030730
0.030730
0.035576
0.035576
0.035576
0.038000
0.033153
0.030730
0.028306
0.021036
0.018613
0.011343
0.008920
0.001650
0.001650
0.001650
0.001650
0.004073
0.001650
0.001650
0.001650
0.001650
0.001650
0.006496
0.006496
0.011343
0.011343
0.011343
0.018613
0.011343
0.013766
0.011343
0.016190
0.016190
-0.008044
-0.061357
-0.112247
-0.182523
-0.211603
-0.160713
-0.078320
-0.025007
0.001650
0.006496
0.006496
0.013766
0.011343
0.011343
0.013766
0.013766
0.018613
0.018613
0.018613
0.023460
0.021036
0.023460
0.025883
0.025883
0.033153
0.033153
0.038000
0.040423
0.040423
0.040423
0.038000
0.035576
0.033153
0.023460
0.018613
0.011343
0.008920
0.006496
0.004073
0.004073
0.001650
0.006496
0.006496
0.008920
0.011343
0.006496
0.008920
0.008920
0.013766
0.013766
0.011343
0.011343
0.011343
0.013766
0.013766
0.011343
0.013766
0.011343
0.011343
0.011343
0.006496
0.006496
0.004073
0.004073
0.006496
0.004073
0.008920
0.006496
0.006496
0.006496
0.006496
0.011343
0.016190
-0.010467
-0.061357
-0.109823
-0.180100
-0.216450
-0.172830
-0.088013
-0.029854
0.001650
0.008920
0.011343
0.013766
0.013766
0.013766
0.013766
0.011343
0.013766
0.013766
0.013766
0.018613
0.018613
0.023460
0.023460
0.025883
0.030730
0.030730
0.035576
0.038000
0.038000
0.040423
0.040423
0.040423
0.035576
0.025883
0.023460
0.016190
0.011343
0.008920
0.006496
0.006496
0.004073
0.001650
0.006496
0.004073
0.006496
0.004073
0.001650
0.006496
0.006496
0.001650
-0.041970
-0.090437
-0.158290
-0.192217
-0.153443
-0.078320
-0.022584
0.001650
0.008920
0.008920
0.011343
0.008920
0.011343
0.013766
0.008920
0.013766
0.016190
0.016190
0.018613
0.021036
0.023460
0.023460
0.023460
0.028306
0.028306
0.030730
0.035576
0.033153
0.033153
0.030730
0.028306
0.025883
0.018613
0.018613
0.013766
0.008920
0.008920
0.004073
0.006496
0.004073
0.004073
0.006496
0.004073
0.006496
0.011343
0.011343
0.013766
0.011343
0.011343
0.016190
0.013766
0.016190
0.013766
0.011343
0.011343
0.008920
0.006496
0.006496
0.001650
0.004073
0.001650
0.001650
0.004073
0.001650
0.004073
0.008920
0.006496
0.011343
0.006496
0.006496
0.008920
0.006496
0.006496
0.004073
0.004073
0.008920
0.004073
0.006496
0.004073
0.006496
0.004073
0.001650
0.004073
0.004073
0.004073
0.006496
0.001650
0.004073
0.004073
0.006496
0.008920
0.008920
0.008920
0.016190
-0.000774
-0.056510
-0.100130
-0.170407
-0.228567
-0.218873
-0.131633
-0.056510
-0.008044
0.006496
0.011343
0.016190
0.018613
0.013766
0.016190
0.011343
0.011343
0.011343
0.008920
0.013766
0.011343
0.013766
0.021036
0.021036
0.028306
0.028306
0.030730
0.035576
0.035576
0.038000
0.038000
0.038000
0.033153
0.030730
0.028306
0.028306
0.023460
0.018613
0.013766
0.011343
0.011343
0.008920
0.006496
0.008920
0.006496
0.008920
0.008920
0.006496
0.008920
0.006496
0.006496
0.008920
0.006496
0.011343
0.008920
0.013766
0.016190
0.016190
0.013766
0.018613
0.016190
0.018613
0.018613
0.013766
0.016190
0.011343
0.013766
0.011343
0.006496
0.008920
0.006496
0.008920
0.011343
0.008920
0.013766
0.016190
-0.027430
-0.075897
-0.131633
-0.197063
-0.214027
-0.151020
-0.068627
-0.017737
0.004073
0.008920
0.011343
0.013766
0.008920
0.011343
0.008920
0.011343
0.013766
0.011343
0.016190
0.013766
0.016190
0.021036
0.021036
0.023460
0.023460
0.025883
0.030730
0.033153
0.038000
0.038000
0.038000
0.038000
0.033153
0.028306
0.023460
0.016190
0.013766
0.006496
0.004073
0.001650
-0.000774
-0.000774
-0.003197
-0.000774
-0.003197
-0.000774
0.001650
0.001650
-0.008044
-0.058934
-0.104977
-0.170407
-0.199487
-0.155867
-0.078320
-0.022584
0.001650
0.008920
0.008920
0.011343
0.008920
0.008920
0.011343
0.008920
0.013766
0.013766
0.013766
0.018613
0.018613
0.025883
0.028306
0.030730
0.035576
0.033153
0.035576
0.038000
0.038000
0.038000
0.033153
0.033153
0.030730
0.018613
0.016190
0.011343
0.006496
0.004073
0.001650
0.004073
0.004073
0.001650
0.006496
0.001650
0.006496
0.006496
0.004073
0.011343
0.008920
0.011343
0.013766
0.011343
0.013766
0.013766
0.011343
0.013766
0.011343
0.008920
0.008920
0.008920
0.011343
0.008920
0.004073
0.006496
0.004073
0.004073
0.006496
0.004073
0.004073
0.001650
0.001650
0.006496
0.004073
0.008920
0.008920
0.006496
0.008920
0.006496
0.008920
0.008920
0.006496
0.008920
0.008920
0.006496
0.006496
0.006496
0.004073
0.004073
0.004073
0.001650
0.004073
0.001650
0.004073
0.001650
0.001650
0.004073
0.004073
0.011343
0.011343
-0.027430
-0.073474
-0.131633
-0.204333
-0.235836
-0.177677
-0.083167
-0.022584
0.001650
0.008920
0.011343
0.013766
0.011343
0.013766
0.011343
0.011343
0.013766
0.011343
0.013766
0.013766
0.016190
0.023460
0.023460
0.028306
0.030730
0.025883
0.030730
0.028306
0.030730
0.030730
0.033153
0.038000
0.033153
0.033153
0.030730
0.028306
0.023460
0.016190
0.013766
0.008920
0.011343
0.013766
0.008920
0.008920
0.001650
0.001650
0.006496
0.001650
0.001650
0.001650
0.001650
0.001650
0.004073
0.008920
0.006496
0.008920
0.011343
0.013766
0.021036
-0.020160
-0.073474
-0.138903
-0.197063
-0.189793
-0.112247
-0.046817
-0.008044
0.006496
0.011343
0.011343
0.016190
0.011343
0.016190
0.013766
0.013766
0.016190
0.016190
0.021036
0.023460
0.021036
0.021036
0.021036
0.021036
0.025883
0.025883
0.028306
0.028306
0.030730
0.035576
0.030730
0.033153
0.028306
0.021036
0.018613
0.013766
0.013766
0.011343
0.006496
0.004073
0.001650
0.001650
0.004073
0.001650
0.001650
0.001650
0.001650
0.004073
0.004073
0.004073
0.004073
0.004073
0.008920
0.006496
0.008920
0.006496
0.006496
0.008920
0.006496
0.008920
0.008920
0.004073
0.004073
0.001650
0.006496
0.006496
0.004073
0.004073
0.001650
0.004073
0.004073
0.001650
0.001650
0.001650
0.001650
0.006496
0.001650
0.004073
0.004073
0.001650
0.004073
0.001650
0.004073
0.001650
0.001650
0.001650
0.001650
0.004073
0.006496
-0.005620
-0.061357
-0.104977
-0.172830
-0.235836
-0.230990
-0.143750
-0.063780
-0.017737
0.001650
0.001650
0.008920
0.008920
0.008920
0.011343
0.011343
0.016190
0.016190
0.016190
0.018613
0.016190
0.018613
0.018613
0.021036
0.025883
0.023460
0.025883
0.028306
0.025883
0.028306
0.028306
0.028306
0.030730
0.025883
0.028306
0.025883
0.021036
0.021036
0.016190
0.013766
0.013766
0.008920
0.008920
0.004073
0.001650
0.001650
0.001650
0.001650
0.001650
0.001650
0.001650
0.001650
0.001650
0.004073
0.001650
0.004073
0.008920
0.008920
0.011343
0.016190
0.016190
0.021036
0.025883
0.001650
-0.061357
-0.112247
-0.187370
-0.221297
-0.184947
-0.090437
-0.029854
0.001650
0.006496
0.008920
0.013766
0.011343
0.016190
0.016190
0.016190
0.021036
0.021036
0.023460
0.021036
0.018613
0.021036
0.021036
0.025883
0.033153
0.035576
0.040423
0.042846
0.045270
0.050116
0.045270
0.047693
0.040423
0.038000
0.030730
0.021036
0.018613
0.013766
0.006496
0.004073
0.001650
0.001650
0.001650
0.001650
0.001650
0.001650
0.006496
0.006496
0.011343
0.016190
0.013766
0.016190
0.016190
0.013766
0.016190
0.013766
0.011343
0.011343
0.008920
0.008920
0.008920
0.006496
0.008920
0.006496
0.004073
0.006496
0.006496
0.008920
0.011343
0.008920
0.013766
0.008920
0.011343
0.013766
0.011343
0.011343
0.008920
0.006496
0.011343
0.011343
-0.025007
-0.078320
-0.131633
-0.199487
-0.230990
-0.182523
-0.095283
-0.032277
0.001650
0.006496
0.013766
0.018613
0.018613
0.021036
0.023460
0.021036
0.023460
0.021036
0.023460
0.023460
0.021036
0.023460
0.023460
0.028306
0.030730
0.030730
0.035576
0.035576
0.040423
0.042846
0.042846
0.045270
0.042846
0.035576
0.033153
0.023460
0.021036
0.016190
0.011343
0.011343
0.006496
0.004073
0.006496
0.004073
0.006496
0.001650
0.004073
0.006496
0.008920
0.013766
0.001650
-0.049240
-0.102553
-0.163137
-0.172830
-0.114670
-0.049240
-0.005620
0.004073
0.013766
0.013766
0.018613
0.018613
0.018613
0.018613
0.013766
0.016190
0.013766
0.013766
0.018613
0.018613
0.021036
0.021036
0.021036
0.025883
0.025883
0.030730
0.030730
0.030730
0.033153
0.028306
0.030730
0.028306
0.023460
0.021036
0.016190
0.011343
0.011343
0.006496
0.006496
0.004073
0.006496
0.011343
0.008920
0.011343
0.011343
0.013766
0.016190
0.011343
0.013766
0.013766
0.011343
0.018613
0.023460
0.001650
-0.056510
-0.112247
-0.182523
-0.211603
-0.163137
-0.083167
-0.027430
0.001650
0.008920
0.011343
0.016190
0.013766
0.013766
0.016190
0.013766
0.016190
0.013766
0.013766
0.018613
0.018613
0.023460
0.025883
0.025883
0.030730
0.033153
0.038000
0.040423
0.038000
0.042846
0.038000
0.038000
0.035576
0.025883
0.023460
0.016190
0.018613
0.016190
0.011343
0.013766
0.008920
0.006496
0.006496
0.004073
0.004073
0.006496
0.001650
0.004073
0.004073
0.006496
0.011343
0.008920
0.011343
0.013766
0.021036
0.001650
-0.058934
-0.114670
-0.197063
-0.243106
-0.199487
-0.102553
-0.039547
-0.000774
0.008920
0.008920
0.013766
0.011343
0.008920
0.013766
0.011343
0.013766
0.018613
0.018613
0.023460
0.023460
0.025883
0.030730
0.030730
0.035576
0.038000
0.038000
0.045270
0.045270
0.047693
0.045270
0.040423
0.035576
0.028306
0.021036
0.016190
0.011343
0.008920
0.004073
0.006496
0.004073
0.006496
0.006496
0.008920
0.008920
0.006496
0.008920
0.016190
0.011343
0.008920
0.008920
0.011343
0.008920
0.011343
0.013766
0.011343
0.011343
0.008920
0.008920
0.016190
0.016190
-0.029854
-0.088013
-0.148597
-0.216450
-0.228567
-0.151020
-0.068627
-0.012890
0.008920
0.013766
0.013766
0.018613
0.018613
0.021036
0.021036
0.018613
0.021036
0.018613
0.023460
0.021036
0.021036
0.025883
0.028306
0.033153
0.035576
0.035576
0.040423
0.042846
0.045270
0.047693
0.040423
0.042846
0.035576
0.028306
0.028306
0.021036
0.021036
0.016190
0.011343
0.011343
0.006496
0.006496
0.008920
0.001650
0.001650
0.001650
0.001650
0.001650
0.004073
0.008920
0.011343
0.013766
0.016190
0.013766
0.021036
0.023460
-0.010467
-0.063780
-0.121940
-0.199487
-0.223720
-0.155867
-0.068627
-0.015314
0.006496
0.011343
0.013766
0.013766
0.011343
0.013766
0.013766
0.013766
0.016190
0.016190
0.018613
0.023460
0.021036
0.025883
0.025883
0.028306
0.033153
0.033153
0.038000
0.038000
0.040423
0.042846
0.038000
0.038000
0.033153
0.025883
0.021036
0.013766
0.011343
0.011343
0.004073
0.006496
0.004073
0.006496
0.008920
0.004073
0.006496
0.004073
0.004073
0.004073
0.001650
0.006496
0.004073
0.008920
0.008920
0.008920
0.013766
0.011343
0.011343
0.013766
0.011343
0.018613
0.021036
-0.025007
-0.085590
-0.143750
-0.216450
-0.233413
-0.155867
-0.073474
-0.020160
0.001650
0.008920
0.011343
0.016190
0.013766
0.013766
0.016190
0.016190
0.021036
0.016190
0.016190
0.018613
0.018613
0.021036
0.023460
0.021036
0.028306
0.028306
0.035576
0.040423
0.040423
0.042846
0.040423
0.042846
0.038000
0.028306
0.025883
0.018613
0.013766
0.013766
0.008920
0.008920
0.006496
0.004073
0.001650
0.001650
0.001650
0.001650
0.001650
0.001650
0.001650
0.004073
0.006496
0.006496
0.008920
0.008920
0.008920
0.013766
0.013766
0.013766
0.013766
0.011343
0.013766
0.011343
0.013766
0.016190
0.004073
-0.049240
-0.102553
-0.167983
-0.228567
-0.218873
-0.129210
-0.054087
-0.005620
0.008920
0.013766
0.013766
0.018613
0.016190
0.018613
0.016190
0.013766
0.016190
0.013766
0.013766
0.011343
0.013766
0.021036
0.021036
0.028306
0.030730
0.030730
0.035576
0.038000
0.042846
0.042846
0.040423
0.040423
0.033153
0.028306
0.023460
0.013766
0.013766
0.006496
0.004073
0.006496
0.004073
0.006496
0.001650
0.001650
0.004073
0.001650
0.006496
0.006496
0.008920
0.011343
0.008920
0.011343
0.011343
0.011343
0.013766
0.016190
0.018613
0.016190
0.013766
0.016190
0.011343
0.011343
0.013766
0.008920
0.013766
0.011343
0.008920
0.011343
0.011343
0.006496
0.008920
0.008920
0.016190
0.001650
-0.044394
-0.090437
-0.155867
-0.209180
-0.197063
-0.117093
-0.049240
-0.008044
0.004073
0.006496
0.008920
0.011343
0.011343
0.013766
0.013766
0.013766
0.018613
0.016190
0.016190
0.018613
0.013766
0.018613
0.018613
0.025883
0.028306
0.028306
0.033153
0.033153
0.038000
0.038000
0.033153
0.033153
0.028306
0.025883
0.023460
0.016190
0.011343
0.008920
0.006496
0.004073
0.001650
0.001650
0.001650
0.001650
0.001650
0.001650
0.004073
0.001650
0.001650
0.004073
0.008920
0.001650
-0.046817
-0.095283
-0.160713
-0.199487
-0.165560
-0.083167
-0.022584
0.001650
0.011343
0.011343
0.016190
0.011343
0.011343
0.011343
0.011343
0.016190
0.016190
0.016190
0.021036
0.018613
0.023460
0.025883
0.025883
0.033153
0.035576
0.035576
0.042846
0.042846
0.040423
0.040423
0.038000
0.033153
0.025883
0.018613
0.016190
0.011343
0.011343
0.008920
0.006496
0.008920
0.008920
0.006496
0.008920
0.006496
0.008920
0.008920
0.004073
0.011343
0.011343
-0.032277
-0.088013
-0.148597
-0.206757
-0.199487
-0.114670
-0.044394
-0.003197
0.008920
0.011343
0.011343
0.013766
0.011343
0.013766
0.013766
0.013766
0.021036
0.018613
0.023460
0.023460
0.023460
0.028306
0.030730
0.035576
0.040423
0.038000
0.042846
0.042846
0.045270
0.045270
0.040423
0.035576
0.030730
0.021036
0.021036
0.013766
0.013766
0.011343
0.008920
0.008920
0.006496
0.008920
0.008920
0.008920
0.011343
0.011343
0.008920
0.008920
0.011343
0.011343
0.013766
0.011343
0.016190
0.016190
-0.027430
-0.080744
-0.143750
-0.209180
-0.216450
-0.134057
-0.061357
-0.010467
0.008920
0.013766
0.016190
0.021036
0.018613
0.021036
0.023460
0.021036
0.023460
0.025883
0.028306
0.028306
0.030730
0.035576
0.035576
0.038000
0.045270
0.042846
0.045270
0.042846
0.042846
0.042846
0.035576
0.035576
0.030730
0.021036
0.018613
0.011343
0.008920
0.006496
0.004073
0.006496
0.004073
0.008920
0.008920
0.006496
0.008920
0.004073
0.004073
0.008920
0.008920
0.013766
0.016190
0.016190
0.018613
0.016190
0.016190
0.013766
0.008920
0.008920
0.004073
0.006496
0.006496
0.004073
0.006496
0.006496
0.006496
0.004073
0.004073
0.008920
0.008920
0.011343
-0.034700
-0.083167
-0.143750
-0.204333
-0.204333
-0.136480
-0.063780
-0.008044
0.008920
0.011343
0.013766
0.016190
0.013766
0.016190
0.013766
0.013766
0.016190
0.016190
0.018613
0.018613
0.018613
0.021036
0.021036
0.025883
0.028306
0.028306
0.033153
0.033153
0.035576
0.042846
0.038000
0.038000
0.030730
0.025883
0.016190
0.008920
0.006496
0.004073
0.001650
0.001650
0.001650
0.001650
0.001650
0.001650
0.001650
-0.000774
0.001650
0.001650
0.001650
0.004073
0.001650
0.004073
0.006496
0.006496
0.013766
0.011343
0.013766
0.011343
0.011343
0.011343
0.008920
0.008920
0.008920
0.006496
0.008920
0.006496
0.004073
0.008920
0.004073
0.004073
0.004073
0.004073
0.006496
0.008920
0.013766
-0.012890
-0.068627
-0.117093
-0.187370
-0.223720
-0.182523
-0.097707
-0.027430
0.001650
0.008920
0.013766
0.013766
0.011343
0.013766
0.013766
0.011343
0.016190
0.013766
0.013766
0.016190
0.016190
0.018613
0.018613
0.023460
0.025883
0.028306
0.035576
0.033153
0.035576
0.038000
0.035576
0.038000
0.038000
0.033153
0.030730
0.025883
0.025883
0.021036
0.013766
0.011343
0.004073
0.001650
0.001650
0.001650
0.001650
0.001650
0.001650
0.001650
0.001650
0.001650
0.001650
0.001650
0.006496
0.001650
0.006496
0.011343
0.011343
0.013766
0.016190
0.021036
0.021036
0.016190
0.018613
0.023460
0.008920
-0.056510
-0.112247
-0.175253
-0.230990
-0.218873
-0.121940
-0.051664
-0.008044
0.006496
0.011343
0.013766
0.018613
0.018613
0.021036
0.018613
0.016190
0.018613
0.018613
0.023460
0.025883
0.028306
0.033153
0.033153
0.040423
0.040423
0.040423
0.045270
0.042846
0.042846
0.040423
0.040423
0.038000
0.030730
0.025883
0.021036
0.016190
0.013766
0.008920
0.008920
0.008920
0.004073
0.006496
0.004073
0.006496
0.006496
0.006496
0.011343
0.011343
0.011343
0.011343
0.006496
0.006496
0.004073
0.011343
0.016190
-0.032277
-0.083167
-0.153443
-0.211603
-0.201910
-0.114670
-0.041970
-0.003197
0.008920
0.011343
0.016190
0.018613
0.016190
0.021036
0.021036
0.021036
0.025883
0.023460
0.018613
0.021036
0.018613
0.021036
0.018613
0.025883
0.033153
0.033153
0.035576
0.040423
0.038000
0.040423
0.038000
0.035576
0.030730
0.023460
0.016190
0.013766
0.011343
0.008920
0.006496
0.011343
0.011343
0.006496
0.006496
0.001650
0.001650
0.001650
0.001650
0.001650
0.006496
0.006496
0.006496
0.011343
0.011343
0.008920
0.011343
0.008920
0.008920
0.008920
0.008920
0.008920
0.008920
0.006496
0.008920
0.006496
0.008920
0.016190
-0.005620
-0.058934
-0.107400
-0.175253
-0.211603
-0.175253
-0.097707
-0.034700
-0.000774
0.006496
0.008920
0.011343
0.008920
0.011343
0.013766
0.011343
0.013766
0.013766
0.011343
0.016190
0.013766
0.018613
0.021036
0.023460
0.028306
0.030730
0.033153
0.035576
0.030730
0.030730
0.028306
0.025883
0.023460
0.016190
0.016190
0.011343
0.004073
0.001650
0.001650
0.001650
0.001650
-0.000774
0.001650
-0.000774
-0.000774
0.001650
0.001650
0.001650
0.001650
0.004073
0.008920
0.006496
0.006496
0.004073
0.004073
0.004073
0.004073
0.006496
0.006496
0.006496
0.008920
0.008920
0.004073
0.004073
0.004073
0.006496
0.004073
0.004073
0.004073
0.001650
0.004073
0.006496
0.004073
0.006496
0.006496
0.008920
0.013766
-0.022584
-0.073474
-0.124363
-0.194640
-0.226143
-0.177677
-0.095283
-0.032277
-0.000774
0.008920
0.008920
0.016190
0.011343
0.011343
0.016190
0.013766
0.016190
0.016190
0.016190
0.018613
0.021036
0.021036
0.021036
0.021036
0.025883
0.025883
0.030730
0.033153
0.035576
0.038000
0.035576
0.035576
0.033153
0.030730
0.028306
0.021036
0.016190
0.016190
0.011343
0.013766
0.013766
0.011343
0.013766
0.013766
0.016190
0.013766
0.008920
0.006496
0.004073
0.006496
0.006496
0.004073
0.006496
0.006496
0.006496
0.013766
0.011343
0.016190
0.013766
0.013766
0.013766
0.013766
0.013766
0.013766
0.013766
0.016190
0.016190
0.018613
0.021036
0.013766
-0.041970
-0.095283
-0.153443
-0.209180
-0.204333
-0.121940
-0.049240
-0.003197
0.011343
0.016190
0.018613
0.018613
0.016190
0.018613
0.018613
0.023460
0.023460
0.023460
0.025883
0.025883
0.028306
0.033153
0.033153
0.035576
0.033153
0.035576
0.040423
0.038000
0.040423
0.040423
0.035576
0.035576
0.028306
0.025883
0.023460
0.016190
0.013766
0.008920
0.006496
0.008920
0.004073
0.006496
0.004073
0.006496
0.011343
0.008920
0.011343
0.008920
0.006496
0.006496
0.004073
0.006496
0.006496
0.008920
0.018613
-0.003197
-0.056510
-0.107400
-0.184947
-0.223720
-0.172830
-0.083167
-0.025007
0.001650
0.011343
0.013766
0.018613
0.018613
0.016190
0.021036
0.016190
0.018613
0.016190
0.016190
0.021036
0.018613
0.023460
0.023460
0.025883
0.033153
0.035576
0.040423
0.042846
0.042846
0.045270
0.040423
0.042846
0.040423
0.033153
0.023460
0.016190
0.011343
0.008920
0.006496
0.006496
0.001650
0.001650
0.001650
0.001650
0.001650
0.001650
0.001650
0.004073
0.004073
0.006496
0.011343
0.008920
0.013766
0.016190
0.018613
-0.029854
-0.085590
-0.143750
-0.201910
-0.199487
-0.114670
-0.046817
-0.005620
0.006496
0.008920
0.011343
0.011343
0.008920
0.013766
0.011343
0.008920
0.013766
0.013766
0.016190
0.018613
0.018613
0.023460
0.023460
0.025883
0.033153
0.035576
0.042846
0.045270
0.047693
0.050116
0.045270
0.042846
0.033153
0.023460
0.013766
0.004073
0.001650
0.001650
0.001650
0.001650
0.001650
0.001650
0.001650
0.001650
0.001650
0.004073
0.004073
0.006496
0.006496
0.008920
0.011343
0.011343
0.016190
0.011343
0.008920
0.011343
0.006496
0.006496
0.004073
0.004073
0.006496
0.004073
0.006496
0.004073
0.004073
0.008920
0.013766
-0.003197
-0.061357
-0.112247
-0.184947
-0.233413
-0.199487
-0.109823
-0.041970
-0.003197
0.011343
0.013766
0.018613
0.018613
0.021036
0.023460
0.021036
0.021036
0.016190
0.013766
0.016190
0.013766
0.018613
0.018613
0.018613
0.023460
0.025883
0.033153
0.038000
0.035576
0.038000
0.038000
0.038000
0.035576
0.028306
0.025883
0.018613
0.018613
0.016190
0.011343
0.013766
0.011343
0.011343
0.011343
0.006496
0.006496
0.004073
0.001650
0.004073
0.001650
0.004073
0.004073
0.008920
0.013766
-0.012890
-0.066204
-0.117093
-0.182523
-0.197063
-0.129210
-0.058934
-0.008044
0.006496
0.016190
0.018613
0.021036
0.021036
0.016190
0.018613
0.013766
0.016190
0.013766
0.013766
0.018613
0.018613
0.021036
0.021036
0.025883
0.033153
0.030730
0.038000
0.040423
0.035576
0.038000
0.035576
0.035576
0.030730
0.023460
0.025883
0.021036
0.021036
0.016190
0.008920
0.006496
0.006496
0.004073
0.004073
0.001650
0.004073
0.001650
0.004073
0.006496
0.004073
0.008920
0.008920
0.006496
0.011343
0.011343
0.011343
-0.032277
-0.080744
-0.138903
-0.192217
-0.192217
-0.114670
-0.049240
-0.005620
0.011343
0.013766
0.011343
0.011343
0.011343
0.013766
0.013766
0.011343
0.013766
0.016190
0.021036
0.021036
0.018613
0.025883
0.023460
0.028306
0.033153
0.033153
0.040423
0.042846
0.042846
0.045270
0.042846
0.040423
0.035576
0.025883
0.016190
0.013766
0.006496
0.006496
0.001650
0.004073
0.001650
0.001650
0.001650
0.001650
0.004073
0.001650
0.001650
0.001650
0.004073
0.004073
0.006496
0.008920
0.008920
0.013766
0.018613
0.016190
0.018613
0.016190
0.013766
0.011343
0.006496
0.004073
0.004073
0.008920
0.001650
-0.044394
-0.088013
-0.151020
-0.206757
-0.199487
-0.114670
-0.046817
-0.008044
0.004073
0.008920
0.008920
0.011343
0.008920
0.013766
0.013766
0.018613
0.021036
0.018613
0.021036
0.016190
0.016190
0.018613
0.016190
0.021036
0.021036
0.025883
0.030730
0.028306
0.033153
0.028306
0.030730
0.028306
0.023460
0.018613
0.013766
0.011343
0.008920
0.004073
0.008920
0.006496
0.008920
0.006496
0.006496
0.001650
0.001650
0.001650
0.001650
0.001650
0.001650
0.001650
0.001650
0.006496
0.006496
0.008920
0.013766
0.011343
0.013766
0.016190
0.018613
-0.012890
-0.068627
-0.119517
-0.184947
-0.199487
-0.126787
-0.054087
-0.008044
0.006496
0.011343
0.011343
0.011343
0.008920
0.011343
0.013766
0.011343
0.016190
0.016190
0.016190
0.018613
0.018613
0.023460
0.028306
0.025883
0.030730
0.033153
0.038000
0.040423
0.040423
0.045270
0.040423
0.040423
0.038000
0.028306
0.018613
0.011343
0.004073
0.006496
0.001650
0.004073
0.001650
0.001650
0.004073
0.001650
0.004073
0.004073
0.001650
0.004073
0.004073
0.004073
0.008920
0.008920
0.016190
0.016190
0.018613
0.021036
0.018613
0.018613
0.016190
0.011343
0.011343
0.011343
0.008920
0.008920
0.006496
0.008920
0.006496
0.006496
0.006496
0.004073
0.006496
0.004073
0.004073
0.004073
0.001650
0.004073
0.011343
0.013766
-0.029854
-0.078320
-0.136480
-0.204333
-0.223720
-0.153443
-0.073474
-0.015314
0.006496
0.011343
0.016190
0.018613
0.013766
0.016190
0.016190
0.018613
0.018613
0.016190
0.018613
0.016190
0.016190
0.018613
0.021036
0.025883
0.025883
0.033153
0.042846
0.042846
0.045270
0.042846
0.038000
0.035576
0.028306
0.028306
0.021036
0.016190
0.011343
0.008920
0.006496
0.001650
0.004073
0.006496
0.001650
0.004073
0.001650
0.001650
0.006496
0.004073
0.006496
0.006496
0.011343
0.016190
0.018613
0.016190
0.011343
0.008920
0.011343
0.011343
-0.034700
-0.088013
-0.151020
-0.201910
-0.187370
-0.107400
-0.039547
-0.005620
0.006496
0.008920
0.008920
0.011343
0.011343
0.016190
0.016190
0.018613
0.021036
0.018613
0.021036
0.018613
0.018613
0.021036
0.018613
0.023460
0.025883
0.025883
0.033153
0.035576
0.035576
0.035576
0.033153
0.033153
0.028306
0.021036
0.018613
0.013766
0.011343
0.008920
0.006496
0.008920
0.006496
0.008920
0.011343
0.008920
0.011343
0.011343
0.006496
0.006496
0.001650
0.006496
0.008920
0.006496
0.011343
0.011343
0.013766
0.013766
0.011343
0.013766
0.011343
0.016190
-0.005620
-0.061357
-0.109823
-0.175253
-0.214027
-0.172830
-0.088013
-0.025007
0.001650
0.013766
0.013766
0.018613
0.016190
0.016190
0.016190
0.013766
0.016190
0.013766
0.016190
0.018613
0.018613
0.023460
0.023460
0.025883
0.028306
0.030730
0.033153
0.038000
0.038000
0.042846
0.040423
0.038000
0.038000
0.033153
0.028306
0.021036
0.011343
0.008920
0.004073
0.004073
0.001650
0.001650
0.001650
0.001650
0.001650
0.001650
0.001650
0.001650
0.001650
0.004073
0.006496
0.006496
0.011343
0.016190
0.011343
-0.034700
-0.083167
-0.155867
-0.206757
-0.182523
-0.092860
-0.032277
-0.000774
0.006496
0.008920
0.013766
0.013766
0.011343
0.013766
0.011343
0.013766
0.016190
0.018613
0.023460
0.021036
0.025883
0.030730
0.033153
0.038000
0.045270
0.050116
0.054963
0.050116
0.047693
0.040423
0.035576
0.033153
0.025883
0.016190
0.013766
0.006496
0.006496
0.004073
0.001650
0.004073
0.001650
0.006496
0.006496
0.004073
0.008920
0.008920
0.013766
0.013766
0.013766
0.018613
0.018613
0.023460
-0.003197
-0.056510
-0.112247
-0.182523
-0.204333
-0.141327
-0.063780
-0.015314
0.004073
0.013766
0.013766
0.018613
0.018613
0.021036
0.023460
0.023460
0.023460
0.021036
0.023460
0.025883
0.025883
0.028306
0.028306
0.033153
0.038000
0.040423
0.045270
0.045270
0.042846
0.042846
0.038000
0.033153
0.025883
0.018613
0.016190
0.011343
0.008920
0.008920
0.008920
0.006496
0.006496
0.006496
0.006496
0.006496
0.008920
0.008920
0.006496
0.008920
0.011343
0.018613
0.025883
0.013766
-0.037124
-0.092860
-0.163137
-0.209180
-0.177677
-0.088013
-0.029854
-0.000774
0.006496
0.011343
0.013766
0.013766
0.011343
0.013766
0.013766
0.018613
0.018613
0.018613
0.023460
0.021036
0.023460
0.028306
0.028306
0.033153
0.038000
0.040423
0.045270
0.042846
0.042846
0.040423
0.030730
0.025883
0.013766
0.013766
0.008920
0.004073
0.006496
0.004073
0.006496
0.008920
0.006496
0.011343
0.008920
0.011343
0.011343
0.008920
0.011343
0.013766
0.018613
0.021036
-0.027430
-0.083167
-0.153443
-0.206757
-0.184947
-0.102553
-0.041970
-0.003197
0.004073
0.006496
0.008920
0.011343
0.008920
0.013766
0.016190
0.013766
0.018613
0.016190
0.021036
0.023460
0.023460
0.028306
0.028306
0.033153
0.040423
0.038000
0.038000
0.033153
0.033153
0.033153
0.025883
0.023460
0.018613
0.013766
0.011343
0.006496
0.008920
0.006496
0.004073
0.006496
0.004073
0.001650
0.006496
0.004073
0.006496
0.008920
0.011343
0.011343
0.011343
0.013766
0.013766
0.008920
0.008920
0.006496
0.004073
0.004073
0.004073
0.013766
-0.005620
-0.061357
-0.112247
-0.177677
-0.218873
-0.184947
-0.102553
-0.039547
-0.003197
0.006496
0.011343
0.016190
0.016190
0.016190
0.018613
0.016190
0.016190
0.021036
0.016190
0.018613
0.013766
0.013766
0.018613
0.018613
0.023460
0.023460
0.023460
0.030730
0.030730
0.033153
0.033153
0.030730
0.033153
0.023460
0.021036
0.021036
0.016190
0.016190
0.008920
0.008920
0.008920
0.006496
0.008920
0.008920
0.006496
0.006496
0.004073
0.006496
0.008920
0.011343
0.016190
0.013766
0.016190
0.016190
0.013766
0.001650
-0.049240
-0.097707
-0.165560
-0.209180
-0.180100
-0.092860
-0.032277
-0.000774
0.011343
0.011343
0.013766
0.018613
0.016190
0.018613
0.018613
0.021036
0.021036
0.021036
0.023460
0.025883
0.030730
0.033153
0.035576
0.042846
0.042846
0.045270
0.047693
0.042846
0.042846
0.040423
0.033153
0.028306
0.021036
0.016190
0.011343
0.008920
0.013766
0.011343
0.013766
0.008920
0.008920
0.008920
0.008920
0.011343
0.011343
0.011343
0.016190
0.018613
0.023460
0.028306
0.028306
-0.020160
-0.075897
-0.136480
-0.194640
-0.192217
-0.112247
-0.046817
-0.008044
0.004073
0.008920
0.011343
0.013766
0.011343
0.013766
0.016190
0.013766
0.018613
0.016190
0.023460
0.023460
0.025883
0.033153
0.038000
0.040423
0.042846
0.042846
0.042846
0.038000
0.042846
0.038000
0.030730
0.028306
0.023460
0.018613
0.016190
0.011343
0.011343
0.004073
0.004073
0.008920
0.004073
0.006496
0.006496
0.006496
0.011343
0.016190
0.021036
-0.017737
-0.066204
-0.121940
-0.180100
-0.184947
-0.114670
-0.049240
-0.008044
0.004073
0.008920
0.011343
0.013766
0.011343
0.018613
0.013766
0.008920
0.013766
0.018613
0.016190
0.023460
0.023460
0.028306
0.030730
0.035576
0.042846
0.042846
0.042846
0.042846
0.040423
0.035576
0.030730
0.023460
0.016190
0.011343
0.008920
0.006496
0.006496
0.004073
0.004073
0.006496
0.004073
0.006496
0.004073
0.004073
0.006496
0.006496
0.011343
0.016190
0.016190
0.018613
0.013766
0.011343
0.013766
0.008920
0.011343
0.011343
0.006496
0.013766
-0.010467
-0.066204
-0.112247
-0.180100
-0.209180
-0.160713
-0.083167
-0.022584
0.001650
0.008920
0.006496
0.011343
0.011343
0.011343
0.013766
0.016190
0.018613
0.018613
0.016190
0.018613
0.013766
0.018613
0.018613
0.021036
0.021036
0.023460
0.028306
0.033153
0.033153
0.040423
0.033153
0.033153
0.030730
0.023460
0.021036
0.013766
0.011343
0.011343
0.008920
0.011343
0.008920
0.006496
0.006496
0.001650
0.001650
0.004073
0.001650
0.001650
0.001650
0.004073
0.008920
0.006496
0.013766
0.011343
0.008920
0.011343
0.011343
0.008920
0.011343
0.008920
0.006496
0.008920
0.008920
0.011343
0.011343
0.006496
0.008920
0.006496
0.006496
0.004073
0.006496
0.013766
-0.020160
-0.066204
-0.121940
-0.194640
-0.218873
-0.158290
-0.080744
-0.025007
0.001650
0.008920
0.008920
0.013766
0.011343
0.013766
0.013766
0.013766
0.018613
0.013766
0.013766
0.013766
0.013766
0.016190
0.016190
0.016190
0.021036
0.023460
0.030730
0.033153
0.033153
0.038000
0.035576
0.030730
0.028306
0.021036
0.021036
0.016190
0.008920
0.008920
0.001650
0.001650
0.001650
0.001650
0.004073
0.006496
0.006496
0.008920
0.004073
0.004073
0.004073
0.001650
0.001650
0.001650
0.001650
0.006496
0.006496
0.008920
0.008920
0.006496
0.008920
0.006496
0.008920
0.006496
0.004073
0.004073
0.001650
0.001650
0.006496
0.006496
0.008920
0.006496
0.006496
0.008920
0.004073
0.006496
0.006496
0.006496
0.008920
0.004073
0.004073
0.001650
0.001650
0.004073
0.001650
0.001650
0.001650
0.001650
0.004073
0.004073
0.001650
-0.041970
-0.083167
-0.141327
-0.206757
-0.216450
-0.143750
-0.063780
-0.012890
0.004073
0.006496
0.011343
0.013766
0.011343
0.013766
0.011343
0.011343
0.013766
0.011343
0.013766
0.013766
0.011343
0.016190
0.013766
0.018613
0.023460
0.025883
0.030730
0.035576
0.038000
0.042846
0.040423
0.040423
0.035576
0.025883
0.025883
0.018613
0.013766
0.008920
0.004073
0.001650
0.004073
0.001650
0.001650
0.001650
0.001650
0.001650
0.001650
0.001650
0.004073
0.008920
0.008920
0.011343
0.011343
0.008920
0.008920
0.008920
0.013766
0.011343
0.013766
0.013766
0.011343
0.016190
0.011343
0.006496
0.011343
0.008920
0.004073
0.006496
0.004073
0.006496
0.013766
0.018613
-0.015314
-0.068627
-0.119517
-0.189793
-0.218873
-0.163137
-0.080744
-0.020160
0.001650
0.006496
0.011343
0.016190
0.008920
0.008920
0.013766
0.013766
0.016190
0.013766
0.016190
0.021036
0.018613
0.021036
0.023460
0.023460
0.033153
0.033153
0.040423
0.042846
0.042846
0.042846
0.035576
0.038000
0.033153
0.030730
0.023460
0.013766
0.013766
0.008920
0.008920
0.006496
0.004073
0.008920
0.006496
0.004073
0.006496
0.004073
0.001650
0.006496
0.008920
0.011343
0.013766
0.013766
0.021036
0.018613
0.016190
0.011343
0.008920
0.011343
0.008920
0.011343
0.021036
-0.005620
-0.066204
-0.119517
-0.192217
-0.235836
-0.201910
-0.104977
-0.037124
0.001650
0.008920
0.016190
0.016190
0.018613
0.021036
0.028306
0.028306
0.028306
0.025883
0.028306
0.025883
0.021036
0.025883
0.028306
0.030730
0.035576
0.033153
0.040423
0.038000
0.040423
0.047693
0.045270
0.045270
0.038000
0.033153
0.025883
0.018613
0.016190
0.016190
0.011343
0.013766
0.013766
0.006496
0.001650
0.004073
0.001650
0.001650
0.001650
0.004073
0.004073
0.004073
0.006496
0.008920
0.011343
0.008920
0.011343
0.008920
0.011343
0.008920
0.004073
0.011343
0.013766
0.013766
0.013766
0.013766
0.013766
0.011343
0.008920
0.006496
0.004073
0.006496
0.006496
0.001650
0.006496
0.006496
0.008920
-0.015314
-0.073474
-0.126787
-0.201910
-0.243106
-0.201910
-0.112247
-0.044394
-0.005620
0.004073
0.013766
0.018613
0.018613
0.021036
0.023460
0.023460
0.016190
0.018613
0.013766
0.016190
0.016190
0.013766
0.021036
0.018613
0.023460
0.023460
0.028306
0.033153
0.035576
0.038000
0.035576
0.038000
0.033153
0.030730
0.028306
0.023460
0.021036
0.016190
0.016190
0.016190
0.011343
0.008920
0.001650
0.001650
0.001650
0.001650
0.001650
0.001650
0.001650
0.001650
0.001650
0.001650
0.004073
0.006496
0.011343
0.011343
0.008920
0.011343
0.013766
0.021036
0.018613
0.016190
0.013766
0.008920
0.008920
0.008920
0.006496
0.008920
0.008920
0.008920
0.013766
-0.000774
-0.058934
-0.107400
-0.177677
-0.226143
-0.199487
-0.114670
-0.044394
-0.000774
0.008920
0.013766
0.016190
0.016190
0.016190
0.018613
0.016190
0.021036
0.021036
0.018613
0.018613
0.016190
0.016190
0.018613
0.018613
0.023460
0.028306
0.028306
0.035576
0.035576
0.042846
0.042846
0.038000
0.038000
0.033153
0.028306
0.021036
0.016190
0.016190
0.011343
0.011343
0.013766
0.013766
0.016190
0.013766
0.008920
0.008920
0.001650
0.001650
0.004073
0.001650
0.006496
0.004073
0.008920
0.013766
0.011343
0.013766
0.013766
0.011343
0.013766
0.008920
0.011343
0.013766
0.011343
0.016190
0.013766
0.013766
0.016190
0.011343
-0.044394
-0.097707
-0.155867
-0.216450
-0.221297
-0.141327
-0.063780
-0.012890
0.006496
0.011343
0.016190
0.018613
0.016190
0.021036
0.021036
0.018613
0.021036
0.018613
0.021036
0.023460
0.021036
0.028306
0.028306
0.028306
0.028306
0.030730
0.035576
0.035576
0.038000
0.042846
0.040423
0.040423
0.038000
0.030730
0.025883
0.021036
0.021036
0.016190
0.011343
0.011343
0.008920
0.006496
0.006496
0.004073
0.004073
0.004073
0.006496
0.008920
0.006496
0.011343
0.001650
0.004073
0.006496
0.004073
0.004073
0.001650
0.004073
0.008920
0.006496
0.008920
0.011343
0.006496
0.008920
0.006496
0.006496
0.011343
0.001650
-0.058934
-0.107400
-0.177677
-0.228567
-0.209180
-0.117093
-0.044394
-0.005620
0.006496
0.008920
0.008920
0.008920
0.008920
0.008920
0.008920
0.011343
0.011343
0.011343
0.018613
0.016190
0.016190
0.021036
0.021036
0.025883
0.025883
0.028306
0.038000
0.038000
0.042846
0.040423
0.035576
0.035576
0.030730
0.028306
0.025883
0.018613
0.018613
0.011343
0.004073
0.001650
0.001650
0.001650
0.001650
0.001650
0.001650
0.001650
0.001650
0.001650
0.001650
0.001650
0.006496
0.006496
0.001650
0.006496
0.008920
0.008920
0.011343
0.013766
0.013766
0.023460
0.013766
0.018613
0.011343
0.008920
0.006496
0.008920
0.008920
0.008920
0.008920
0.006496
0.008920
0.016190
-0.015314
-0.071050
-0.124363
-0.199487
-0.238260
-0.197063
-0.102553
-0.037124
-0.003197
0.004073
0.011343
0.018613
0.018613
0.023460
0.023460
0.018613
0.021036
0.016190
0.016190
0.018613
0.018613
0.021036
0.021036
0.021036
0.030730
0.028306
0.028306
0.033153
0.038000
0.038000
0.038000
0.038000
0.033153
0.030730
0.028306
0.018613
0.021036
0.016190
0.013766
0.011343
0.004073
0.001650
0.001650
0.001650
0.001650
0.001650
0.001650
0.001650
-0.041970
-0.090437
-0.153443
-0.189793
-0.163137
-0.085590
-0.025007
0.001650
0.011343
0.011343
0.016190
0.018613
0.016190
0.018613
0.016190
0.016190
0.016190
0.011343
0.016190
0.013766
0.016190
0.021036
0.021036
0.028306
0.030730
0.030730
0.035576
0.035576
0.038000
0.038000
0.035576
0.035576
0.030730
0.025883
0.018613
0.016190
0.013766
0.011343
0.011343
0.016190
0.011343
0.011343
0.011343
0.006496
0.008920
0.004073
0.006496
0.008920
0.006496
0.008920
0.008920
0.008920
0.011343
0.011343
0.013766
0.013766
0.013766
0.013766
-0.020160
-0.071050
-0.126787
-0.177677
-0.172830
-0.112247
-0.046817
-0.000774
0.008920
0.011343
0.013766
0.016190
0.013766
0.013766
0.013766
0.011343
0.016190
0.013766
0.016190
0.018613
0.016190
0.021036
0.023460
0.028306
0.030730
0.030730
0.035576
0.035576
0.038000
0.038000
0.035576
0.035576
0.033153
0.028306
0.023460
0.016190
0.013766
0.008920
0.001650
0.004073
0.001650
0.001650
0.001650
0.001650
0.006496
0.004073
0.004073
0.011343
0.008920
0.011343
0.008920
0.016190
-0.003197
-0.046817
-0.090437
-0.170407
-0.206757
-0.163137
-0.078320
-0.025007
0.001650
0.008920
0.008920
0.013766
0.011343
0.013766
0.016190
0.016190
0.018613
0.018613
0.023460
0.025883
0.025883
0.030730
0.030730
0.035576
0.038000
0.042846
0.050116
0.050116
0.052540
0.050116
0.045270
0.040423
0.028306
0.023460
0.016190
0.008920
0.006496
0.001650
0.001650
0.001650
0.001650
0.004073
0.004073
0.001650
0.004073
0.008920
0.004073
-0.041970
-0.092860
-0.153443
-0.189793
-0.163137
-0.080744
-0.022584
0.001650
0.011343
0.008920
0.011343
0.011343
0.011343
0.013766
0.011343
0.013766
0.016190
0.016190
0.018613
0.018613
0.023460
0.025883
0.030730
0.035576
0.038000
0.045270
0.045270
0.050116
0.047693
0.038000
0.035576
0.025883
0.016190
0.013766
0.006496
0.006496
0.004073
0.001650
0.001650
0.001650
0.004073
0.001650
0.001650
0.006496
0.006496
0.011343
0.016190
0.013766
-0.037124
-0.088013
-0.158290
-0.201910
-0.172830
-0.088013
-0.029854
0.001650
0.008920
0.008920
0.013766
0.016190
0.013766
0.018613
0.016190
0.021036
0.023460
0.021036
0.025883
0.023460
0.025883
0.033153
0.033153
0.040423
0.040423
0.042846
0.047693
0.045270
0.047693
0.047693
0.042846
0.035576
0.023460
0.018613
0.011343
0.006496
0.006496
0.004073
0.006496
0.008920
0.004073
0.008920
0.006496
0.011343
0.011343
0.008920
0.008920
0.011343
0.013766
0.011343
0.013766
0.018613
0.016190
0.018613
0.016190
0.018613
0.018613
0.016190
0.016190
0.013766
0.013766
0.011343
0.011343
0.008920
0.008920
0.008920
0.006496
0.008920
0.016190
0.008920
-0.039547
-0.085590
-0.153443
-0.209180
-0.201910
-0.124363
-0.051664
-0.005620
0.011343
0.016190
0.021036
0.025883
0.023460
0.023460
0.016190
0.016190
0.016190
0.011343
0.013766
0.016190
0.016190
0.018613
0.018613
0.023460
0.025883
0.028306
0.033153
0.033153
0.033153
0.035576
0.033153
0.035576
0.033153
0.028306
0.025883
0.021036
0.021036
0.016190
0.011343
0.006496
0.004073
0.001650
0.001650
0.001650
0.001650
0.001650
0.001650
-0.020160
-0.061357
-0.114670
-0.158290
-0.138903
-0.083167
-0.027430
0.001650
0.008920
0.011343
0.013766
0.013766
0.011343
0.013766
0.013766
0.018613
0.016190
0.013766
0.016190
0.016190
0.016190
0.016190
0.013766
0.018613
0.018613
0.021036
0.023460
0.021036
0.021036
0.018613
0.018613
0.018613
0.013766
0.013766
0.011343
0.008920
0.006496
0.004073
0.008920
0.008920
0.008920
0.011343
0.008920
0.011343
0.008920
0.006496
0.006496
0.004073
-0.034700
-0.085590
-0.146173
-0.192217
-0.180100
-0.104977
-0.041970
-0.008044
0.001650
0.004073
0.006496
0.011343
0.011343
0.013766
0.013766
0.013766
0.021036
0.018613
0.023460
0.023460
0.023460
0.028306
0.023460
0.025883
0.028306
0.028306
0.028306
0.028306
0.025883
0.025883
0.021036
0.021036
0.018613
0.013766
0.013766
0.006496
0.006496
0.006496
0.004073
0.006496
0.008920
0.008920
0.011343
0.008920
0.008920
0.008920
0.004073
0.006496
0.001650
0.004073
0.001650
0.001650
0.006496
0.004073
0.006496
0.004073
0.004073
0.006496
0.004073
0.008920
0.008920
0.006496
0.008920
0.004073
0.006496
0.011343
0.016190
0.018613
-0.025007
-0.071050
-0.134057
-0.192217
-0.204333
-0.138903
-0.066204
-0.015314
0.004073
0.008920
0.011343
0.013766
0.011343
0.013766
0.016190
0.016190
0.018613
0.018613
0.016190
0.021036
0.018613
0.021036
0.021036
0.023460
0.030730
0.030730
0.035576
0.040423
0.040423
0.038000
0.035576
0.028306
0.023460
0.021036
0.013766
0.008920
0.006496
0.004073
0.004073
0.001650
0.001650
0.001650
0.001650
0.001650
0.001650
0.001650
0.001650
0.001650
0.004073
0.008920
0.011343
0.011343
0.008920
0.008920
0.013766
0.013766
0.013766
0.013766
0.011343
0.016190
0.018613
0.006496
-0.044394
-0.095283
-0.163137
-0.211603
-0.189793
-0.102553
-0.037124
-0.000774
0.008920
0.011343
0.016190
0.018613
0.018613
0.021036
0.018613
0.018613
0.016190
0.016190
0.018613
0.016190
0.021036
0.018613
0.021036
0.025883
0.028306
0.033153
0.033153
0.033153
0.035576
0.033153
0.035576
0.030730
0.023460
0.023460
0.016190
0.013766
0.011343
0.006496
0.008920
0.006496
0.008920
0.008920
0.006496
0.008920
0.006496
0.008920
0.008920
0.001650
0.004073
0.001650
0.001650
0.004073
0.004073
0.004073
0.006496
0.004073
0.006496
0.011343
0.008920
0.006496
0.008920
0.006496
0.008920
0.008920
0.006496
0.008920
0.011343
0.011343
0.008920
0.011343
0.008920
0.006496
0.006496
0.004073
0.004073
0.006496
0.004073
0.006496
0.004073
0.001650
0.004073
0.004073
0.013766
-0.000774
-0.056510
-0.100130
-0.170407
-0.226143
-0.211603
-0.121940
-0.046817
-0.003197
0.011343
0.013766
0.018613
0.013766
0.016190
0.016190
0.016190
0.016190
0.018613
0.018613
0.021036
0.021036
0.021036
0.021036
0.023460
0.028306
0.025883
0.028306
0.033153
0.033153
0.038000
0.038000
0.035576
0.040423
0.038000
0.038000
0.030730
0.023460
0.016190
0.008920
0.004073
0.001650
0.001650
0.001650
0.001650
-0.000774
0.001650
0.001650
0.001650
0.001650
0.001650
0.006496
0.004073
0.008920
0.008920
0.008920
0.016190
0.013766
0.016190
0.013766
0.016190
0.018613
-0.012890
-0.066204
-0.119517
-0.182523
-0.194640
-0.129210
-0.058934
-0.012890
0.004073
0.008920
0.008920
0.011343
0.008920
0.008920
0.008920
0.008920
0.016190
0.013766
0.016190
0.021036
0.018613
0.018613
0.018613
0.021036
0.023460
0.025883
0.028306
0.030730
0.033153
0.035576
0.030730
0.028306
0.028306
0.021036
0.018613
0.011343
0.008920
0.006496
0.001650
0.004073
0.004073
0.004073
0.008920
0.006496
0.008920
0.008920
0.004073
0.004073
0.001650
0.001650
0.001650
0.004073
0.011343
-0.000774
-0.051664
-0.097707
-0.167983
-0.209180
-0.182523
-0.095283
-0.034700
-0.000774
0.006496
0.008920
0.011343
0.013766
0.016190
0.018613
0.018613
0.018613
0.018613
0.013766
0.016190
0.018613
0.018613
0.023460
0.023460
0.025883
0.033153
0.035576
0.038000
0.040423
0.038000
0.040423
0.035576
0.035576
0.028306
0.023460
0.023460
0.016190
0.016190
0.013766
0.008920
0.008920
0.006496
0.006496
0.004073
0.006496
0.006496
0.004073
0.008920
0.008920
0.008920
0.013766
0.013766
0.013766
0.013766
0.013766
0.016190
0.013766
0.013766
0.016190
0.013766
0.021036
-0.010467
-0.066204
-0.119517
-0.184947
-0.211603
-0.160713
-0.083167
-0.022584
0.001650
0.011343
0.013766
0.016190
0.016190
0.016190
0.021036
0.018613
0.021036
0.021036
0.021036
0.025883
0.025883
0.028306
0.028306
0.028306
0.028306
0.033153
0.035576
0.038000
0.035576
0.038000
0.035576
0.035576
0.030730
0.023460
0.021036
0.013766
0.013766
0.011343
0.008920
0.008920
0.006496
0.006496
0.008920
0.008920
0.011343
0.011343
0.008920
0.008920
0.004073
0.006496
0.006496
0.004073
0.006496
0.006496
0.011343
0.011343
0.008920
0.011343
0.008920
0.008920
0.011343
0.008920
0.011343
0.013766
0.016190
-0.015314
-0.071050
-0.121940
-0.192217
-0.216450
-0.163137
-0.078320
-0.022584
0.004073
0.008920
0.011343
0.013766
0.013766
0.013766
0.013766
0.013766
0.016190
0.016190
0.018613
0.018613
0.018613
0.023460
0.023460
0.028306
0.030730
0.038000
0.042846
0.042846
0.045270
0.050116
0.045270
0.042846
0.035576
0.025883
0.018613
0.011343
0.006496
0.001650
0.001650
0.004073
0.001650
0.001650
0.001650
0.001650
0.001650
0.001650
0.004073
0.004073
0.004073
0.011343
0.011343
0.016190
0.016190
0.018613
0.018613
0.013766
0.013766
0.011343
0.008920
0.008920
0.006496
0.011343
0.011343
-0.044394
-0.095283
-0.153443
-0.218873
-0.223720
-0.141327
-0.063780
-0.012890
0.006496
0.013766
0.016190
0.021036
0.021036
0.023460
0.023460
0.023460
0.023460
0.021036
0.021036
0.021036
0.018613
0.021036
0.018613
0.023460
0.030730
0.033153
0.038000
0.040423
0.040423
0.042846
0.040423
0.038000
0.030730
0.023460
0.018613
0.016190
0.013766
0.013766
0.008920
0.008920
0.008920
0.001650
0.001650
0.001650
0.001650
0.001650
0.001650
0.001650
0.001650
0.004073
0.004073
0.006496
0.013766
0.018613
-0.000774
-0.056510
-0.109823
-0.182523
-0.216450
-0.165560
-0.080744
-0.022584
0.004073
0.013766
0.016190
0.018613
0.018613
0.018613
0.016190
0.013766
0.013766
0.011343
0.011343
0.013766
0.013766
0.018613
0.018613
0.023460
0.030730
0.030730
0.038000
0.040423
0.038000
0.040423
0.035576
0.033153
0.030730
0.023460
0.021036
0.016190
0.016190
0.013766
0.008920
0.008920
0.006496
0.006496
0.001650
0.001650
0.001650
0.001650
0.001650
0.004073
0.004073
0.006496
0.006496
0.006496
0.011343
0.008920
0.011343
0.011343
0.008920
0.011343
0.008920
0.016190
0.018613
-0.015314
-0.068627
-0.124363
-0.187370
-0.201910
-0.143750
-0.073474
-0.017737
0.004073
0.008920
0.011343
0.016190
0.013766
0.018613
0.016190
0.013766
0.013766
0.013766
0.013766
0.016190
0.016190
0.023460
0.023460
0.025883
0.033153
0.033153
0.038000
0.040423
0.042846
0.045270
0.040423
0.040423
0.028306
0.018613
0.018613
0.011343
0.006496
0.006496
0.001650
0.004073
0.004073
0.004073
0.004073
0.004073
0.004073
0.006496
0.006496
0.011343
-0.005620
-0.054087
-0.097707
-0.158290
-0.182523
-0.138903
-0.061357
-0.012890
0.004073
0.011343
0.011343
0.013766
0.011343
0.011343
0.013766
0.013766
0.013766
0.018613
0.016190
0.021036
0.023460
0.023460
0.030730
0.030730
0.038000
0.038000
0.042846
0.045270
0.042846
0.045270
0.042846
0.033153
0.025883
0.016190
0.008920
0.004073
0.001650
0.001650
0.001650
0.001650
0.001650
0.001650
0.001650
0.001650
0.004073
0.001650
0.001650
0.004073
0.004073
0.008920
0.008920
0.013766
0.013766
0.011343
0.011343
0.008920
0.011343
0.008920
0.004073
0.006496
0.004073
0.004073
0.006496
0.006496
0.004073
0.006496
0.004073
0.006496
0.006496
0.004073
0.006496
0.006496
0.011343
0.001650
-0.049240
-0.092860
-0.155867
-0.206757
-0.197063
-0.121940
-0.051664
-0.008044
0.006496
0.008920
0.013766
0.011343
0.011343
0.016190
0.013766
0.013766
0.016190
0.013766
0.016190
0.016190
0.018613
0.023460
0.023460
0.028306
0.030730
0.030730
0.035576
0.033153
0.038000
0.038000
0.035576
0.038000
0.035576
0.033153
0.030730
0.023460
0.016190
0.011343
0.001650
0.004073
0.001650
0.001650
0.001650
0.001650
0.001650
0.001650
0.001650
0.001650
0.001650
0.004073
0.004073
0.006496
0.008920
0.013766
0.016190
0.018613
0.021036
0.021036
0.021036
0.021036
0.018613
0.018613
0.013766
0.013766
0.011343
0.008920
0.011343
0.008920
0.008920
0.011343
0.011343
0.016190
-0.020160
-0.075897
-0.129210
-0.204333
-0.233413
-0.172830
-0.078320
-0.020160
0.006496
0.016190
0.016190
0.018613
0.018613
0.018613
0.013766
0.011343
0.013766
0.013766
0.013766
0.018613
0.018613
0.023460
0.023460
0.023460
0.030730
0.030730
0.038000
0.040423
0.040423
0.045270
0.045270
0.045270
0.038000
0.028306
0.021036
0.013766
0.008920
0.004073
0.001650
0.001650
0.001650
0.001650
0.001650
0.001650
0.001650
0.001650
0.001650
0.004073
0.001650
0.004073
0.006496
0.008920
0.013766
0.018613
-0.017737
-0.071050
-0.129210
-0.197063
-0.199487
-0.124363
-0.054087
-0.012890
0.004073
0.011343
0.011343
0.013766
0.011343
0.011343
0.016190
0.013766
0.018613
0.018613
0.023460
0.023460
0.023460
0.028306
0.028306
0.033153
0.040423
0.040423
0.042846
0.040423
0.033153
0.035576
0.028306
0.025883
0.018613
0.011343
0.011343
0.006496
0.006496
0.006496
0.004073
0.004073
0.004073
0.004073
0.006496
0.004073
0.006496
0.006496
0.008920
0.013766
0.011343
0.013766
0.013766
0.018613
0.018613
0.013766
0.013766
0.006496
0.008920
0.004073
0.004073
0.004073
0.006496
0.006496
0.004073
-0.041970
-0.088013
-0.146173
-0.199487
-0.199487
-0.129210
-0.061357
-0.012890
0.004073
0.011343
0.011343
0.013766
0.013766
0.016190
0.021036
0.018613
0.021036
0.018613
0.013766
0.013766
0.011343
0.013766
0.013766
0.013766
0.021036
0.021036
0.023460
0.028306
0.028306
0.028306
0.025883
0.025883
0.023460
0.018613
0.016190
0.011343
0.013766
0.013766
0.011343
0.013766
0.011343
0.006496
0.006496
0.001650
0.001650
0.001650
0.001650
0.001650
0.001650
0.001650
0.006496
0.004073
0.008920
0.008920
0.006496
0.011343
0.011343
0.016190
-0.017737
-0.068627
-0.119517
-0.187370
-0.206757
-0.138903
-0.063780
-0.012890
0.006496
0.013766
0.011343
0.013766
0.008920
0.008920
0.011343
0.008920
0.011343
0.011343
0.016190
0.018613
0.018613
0.023460
0.021036
0.023460
0.028306
0.028306
0.038000
0.045270
0.042846
0.047693
0.045270
0.040423
0.038000
0.030730
0.025883
0.018613
0.011343
0.006496
0.001650
0.001650
-0.000774
0.001650
0.001650
0.001650
0.004073
0.004073
0.006496
0.008920
0.006496
0.011343
0.011343
0.013766
0.016190
0.016190
0.021036
0.018613
0.021036
0.021036
0.016190
0.018613
0.013766
0.008920
0.011343
0.008920
0.004073
0.001650
0.001650
0.004073
0.004073
0.006496
0.006496
0.006496
0.008920
0.011343
0.011343
0.011343
0.013766
0.011343
-0.041970
-0.090437
-0.146173
-0.211603
-0.221297
-0.143750
-0.061357
-0.010467
0.006496
0.016190
0.016190
0.016190
0.013766
0.013766
0.013766
0.013766
0.016190
0.016190
0.018613
0.021036
0.018613
0.025883
0.025883
0.028306
0.033153
0.033153
0.038000
0.042846
0.045270
0.045270
0.045270
0.045270
0.042846
0.040423
0.030730
0.021036
0.018613
0.013766
0.004073
0.006496
0.001650
0.004073
0.001650
0.001650
0.001650
0.001650
0.006496
0.004073
-0.034700
-0.078320
-0.136480
-0.163137
-0.124363
-0.058934
-0.003197
0.011343
0.013766
0.011343
0.013766
0.013766
0.008920
0.013766
0.011343
0.013766
0.016190
0.013766
0.016190
0.016190
0.021036
0.021036
0.018613
0.025883
0.023460
0.025883
0.030730
0.028306
0.030730
0.030730
0.028306
0.025883
0.018613
0.016190
0.008920
0.006496
0.004073
0.001650
0.001650
0.001650
0.001650
0.001650
0.001650
0.006496
0.006496
0.006496
0.008920
0.006496
0.006496
0.011343
0.008920
0.011343
0.008920
0.011343
0.013766
0.011343
0.013766
0.013766
0.011343
0.013766
0.008920
0.011343
0.006496
0.004073
0.004073
0.001650
0.001650
0.001650
0.001650
0.001650
0.001650
0.001650
0.001650
0.001650
0.001650
0.001650
0.001650
0.008920
-0.015314
-0.061357
-0.109823
-0.180100
-0.214027
-0.167983
-0.088013
-0.027430
0.001650
0.006496
0.008920
0.011343
0.011343
0.011343
0.011343
0.008920
0.011343
0.011343
0.011343
0.016190
0.016190
0.018613
0.018613
0.021036
0.023460
0.023460
0.028306
0.030730
0.030730
0.035576
0.033153
0.035576
0.035576
0.028306
0.023460
0.016190
0.011343
0.008920
0.001650
0.004073
0.001650
0.001650
0.001650
0.001650
0.001650
0.001650
0.004073
0.004073
0.004073
0.006496
0.006496
0.008920
0.011343
0.011343
0.016190
0.016190
0.018613
0.021036
0.018613
0.018613
0.013766
0.011343
0.011343
0.006496
0.006496
0.013766
0.008920
-0.037124
-0.088013
-0.146173
-0.211603
-0.216450
-0.138903
-0.063780
-0.012890
0.006496
0.011343
0.016190
0.018613
0.018613
0.023460
0.025883
0.021036
0.021036
0.013766
0.016190
0.016190
0.013766
0.018613
0.018613
0.023460
0.028306
0.028306
0.035576
0.038000
0.042846
0.042846
0.038000
0.038000
0.033153
0.030730
0.025883
0.021036
0.021036
0.016190
0.013766
0.013766
0.011343
0.011343
0.011343
0.004073
0.004073
0.001650
0.001650
0.001650
0.001650
0.006496
0.004073
0.011343
0.013766
-0.022584
-0.071050
-0.124363
-0.189793
-0.201910
-0.129210
-0.054087
-0.003197
0.013766
0.018613
0.018613
0.021036
0.018613
0.021036
0.018613
0.016190
0.016190
0.016190
0.016190
0.021036
0.021036
0.025883
0.025883
0.030730
0.035576
0.035576
0.042846
0.047693
0.045270
0.047693
0.042846
0.042846
0.035576
0.025883
0.021036
0.011343
0.006496
0.004073
0.001650
0.001650
0.001650
0.001650
0.001650
0.001650
0.004073
0.006496
0.006496
0.008920
0.008920
0.013766
0.016190
0.016190
0.021036
0.016190
0.013766
0.016190
0.013766
0.013766
0.011343
0.016190
0.018613
-0.025007
-0.080744
-0.136480
-0.194640
-0.204333
-0.138903
-0.063780
-0.012890
0.006496
0.011343
0.011343
0.016190
0.016190
0.018613
0.021036
0.018613
0.021036
0.018613
0.016190
0.013766
0.016190
0.018613
0.021036
0.021036
0.028306
0.028306
0.035576
0.038000
0.035576
0.038000
0.035576
0.035576
0.030730
0.023460
0.023460
0.018613
0.016190
0.016190
0.013766
0.011343
0.006496
0.001650
0.001650
0.001650
0.001650
0.001650
0.001650
0.001650
0.001650
0.001650
0.001650
0.004073
0.006496
0.004073
0.008920
0.011343
0.008920
0.013766
0.013766
0.011343
0.018613
0.011343
-0.039547
-0.088013
-0.148597
-0.204333
-0.194640
-0.112247
-0.044394
-0.005620
0.004073
0.006496
0.008920
0.011343
0.008920
0.013766
0.013766
0.013766
0.018613
0.013766
0.018613
0.021036
0.023460
0.023460
0.025883
0.030730
0.035576
0.035576
0.042846
0.042846
0.045270
0.045270
0.042846
0.040423
0.035576
0.025883
0.021036
0.008920
0.006496
0.001650
0.001650
0.001650
-0.000774
0.001650
0.001650
0.001650
0.001650
0.001650
0.001650
0.004073
0.004073
0.008920
0.006496
0.008920
0.013766
0.011343
0.018613
0.018613
0.016190
0.013766
0.013766
0.016190
0.011343
0.008920
0.008920
0.004073
0.004073
0.006496
0.001650
0.004073
0.006496
0.004073
0.008920
0.004073
0.006496
0.006496
0.004073
0.006496
0.004073
0.006496
0.008920
0.006496
0.011343
0.011343
0.013766
0.011343
0.006496
0.006496
0.004073
0.006496
-0.025007
-0.073474
-0.121940
-0.194640
-0.233413
-0.189793
-0.100130
-0.037124
-0.000774
0.004073
0.008920
0.013766
0.011343
0.016190
0.016190
0.018613
0.018613
0.018613
0.021036
0.021036
0.023460
0.028306
0.025883
0.028306
0.028306
0.028306
0.028306
0.025883
0.028306
0.028306
0.025883
0.028306
0.021036
0.021036
0.018613
0.013766
0.013766
0.008920
0.008920
0.008920
0.006496
0.008920
0.008920
0.008920
0.008920
0.006496
0.006496
0.006496
0.001650
0.001650
0.001650
0.001650
0.001650
0.001650
0.001650
0.001650
0.004073
0.008920
0.008920
0.011343
0.011343
0.013766
0.016190
0.016190
0.021036
0.001650
-0.044394
-0.090437
-0.160713
-0.199487
-0.167983
-0.090437
-0.029854
-0.000774
0.004073
0.006496
0.008920
0.004073
0.006496
0.008920
0.008920
0.011343
0.011343
0.011343
0.016190
0.011343
0.013766
0.018613
0.018613
0.025883
0.028306
0.035576
0.040423
0.038000
0.042846
0.040423
0.033153
0.023460
0.018613
0.011343
0.006496
0.001650
0.001650
0.001650
0.001650
0.001650
0.001650
0.001650
0.001650
0.001650
0.004073
0.004073
0.008920
0.006496
0.011343
0.013766
0.011343
0.011343
0.008920
0.006496
0.008920
0.006496
0.006496
0.006496
0.006496
0.013766
0.001650
-0.054087
-0.102553
-0.165560
-0.216450
-0.204333
-0.119517
-0.051664
-0.008044
0.011343
0.018613
0.018613
0.021036
0.021036
0.018613
0.018613
0.013766
0.013766
0.011343
0.016190
0.018613
0.013766
0.021036
0.023460
0.028306
0.033153
0.035576
0.040423
0.040423
0.042846
0.042846
0.040423
0.040423
0.035576
0.033153
0.023460
0.013766
0.008920
0.004073
0.001650
0.001650
0.001650
0.001650
0.001650
0.001650
0.001650
0.001650
0.001650
0.004073
0.004073
0.006496
0.008920
0.011343
0.016190
0.016190
0.018613
0.016190
0.016190
0.016190
0.013766
0.013766
0.011343
0.011343
0.011343
0.006496
0.006496
0.006496
0.006496
0.008920
0.006496
0.013766
0.008920
-0.034700
-0.080744
-0.138903
-0.201910
-0.211603
-0.134057
-0.056510
-0.005620
0.011343
0.016190
0.016190
0.016190
0.013766
0.013766
0.013766
0.011343
0.013766
0.011343
0.016190
0.018613
0.016190
0.018613
0.021036
0.023460
0.033153
0.033153
0.038000
0.038000
0.040423
0.042846
0.040423
0.042846
0.040423
0.030730
0.023460
0.011343
0.008920
0.006496
0.001650
0.001650
0.001650
0.001650
0.001650
0.001650
0.001650
0.001650
0.004073
0.006496
0.004073
0.011343
0.008920
0.011343
0.016190
0.013766
0.013766
0.011343
0.011343
0.013766
0.011343
0.013766
0.011343
0.008920
0.011343
0.008920
0.008920
0.008920
0.004073
0.008920
0.008920
0.008920
0.006496
0.008920
0.016190
0.008920
-0.039547
-0.083167
-0.143750
-0.201910
-0.194640
-0.117093
-0.046817
-0.005620
0.006496
0.008920
0.011343
0.013766
0.011343
0.013766
0.011343
0.013766
0.016190
0.016190
0.018613
0.016190
0.018613
0.023460
0.025883
0.030730
0.033153
0.033153
0.040423
0.040423
0.042846
0.042846
0.040423
0.040423
0.033153
0.025883
0.018613
0.008920
0.001650
0.001650
-0.000774
0.001650
0.001650
0.001650
0.001650
0.001650
0.001650
0.001650
0.001650
0.001650
0.001650
0.004073
0.004073
0.011343
0.013766
0.013766
0.013766
0.011343
0.011343
0.011343
0.006496
0.008920
0.006496
0.006496
0.008920
0.006496
0.008920
0.008920
0.008920
0.013766
-0.017737
-0.068627
-0.117093
-0.189793
-0.211603
-0.153443
-0.071050
-0.012890
0.008920
0.013766
0.011343
0.016190
0.011343
0.008920
0.011343
0.006496
0.008920
0.008920
0.008920
0.011343
0.011343
0.016190
0.016190
0.021036
0.025883
0.028306
0.033153
0.035576
0.035576
0.040423
0.040423
0.040423
0.035576
0.023460
0.018613
0.008920
0.008920
0.004073
0.001650
0.001650
0.001650
0.001650
0.001650
0.001650
0.001650
0.001650
0.001650
0.001650
0.001650
0.001650
0.004073
0.004073
0.008920
0.006496
0.006496
0.006496
0.004073
0.006496
0.004073
0.006496
0.006496
0.004073
0.006496
0.004073
0.001650
0.006496
0.008920
0.004073
-0.046817
-0.095283
-0.155867
-0.211603
-0.206757
-0.129210
-0.056510
-0.008044
0.011343
0.013766
0.016190
0.013766
0.011343
0.013766
0.008920
0.011343
0.013766
0.013766
0.016190
0.016190
0.016190
0.018613
0.018613
0.023460
0.028306
0.028306
0.033153
0.033153
0.035576
0.042846
0.038000
0.040423
0.033153
0.025883
0.016190
0.008920
0.008920
0.004073
0.001650
0.004073
0.001650
0.001650
0.001650
0.001650
0.001650
0.001650
0.001650
0.004073
0.004073
0.006496
0.011343
0.008920
0.011343
0.008920
0.006496
0.008920
0.011343
0.011343
0.011343
0.013766
0.013766
0.013766
0.013766
0.008920
0.013766
0.011343
0.011343
0.008920
0.008920
0.013766
0.008920
0.013766
0.011343
0.013766
0.013766
0.013766
0.011343
0.006496
0.008920
0.006496
0.008920
0.008920
0.004073
0.006496
0.004073
0.008920
0.008920
0.006496
0.006496
0.006496
0.006496
0.011343
0.016190
-0.027430
-0.078320
-0.134057
-0.201910
-0.230990
-0.177677
-0.088013
-0.025007
0.006496
0.013766
0.018613
0.018613
0.016190
0.016190
0.016190
0.016190
0.021036
0.018613
0.021036
0.021036
0.018613
0.025883
0.023460
0.028306
0.028306
0.030730
0.033153
0.035576
0.040423
0.040423
0.038000
0.040423
0.035576
0.035576
0.033153
0.025883
0.018613
0.013766
0.006496
0.006496
0.004073
0.004073
0.001650
0.001650
0.004073
0.001650
0.001650
0.004073
0.001650
0.001650
0.001650
0.001650
0.004073
-0.003197
-0.049240
-0.090437
-0.158290
