0.006142
0.004779
0.004779
0.004097
0.002733
0.001369
0.000005
0.002051
0.001369
0.000005
0.000687
0.000687
-0.006133
-0.022500
-0.070237
-0.117974
-0.148662
-0.145934
-0.111836
-0.073647
-0.040231
-0.019772
-0.003405
0.004097
0.008188
0.010916
0.011598
0.009552
0.008870
0.009552
0.010916
0.012280
0.012962
0.010916
0.011598
0.012962
0.013644
0.014326
0.014326
0.014326
0.015690
0.017054
0.019100
0.019100
0.020464
0.021827
0.020464
0.022509
0.023873
0.023191
0.024555
0.026601
0.027965
0.026601
0.026601
0.025237
0.024555
0.022509
0.020464
0.015690
0.011598
0.009552
0.005460
0.004779
0.002733
0.002051
0.001369
0.001369
0.000687
-0.000677
-0.001359
-0.002041
-0.003405
-0.003405
-0.003405
-0.002723
-0.004087
-0.004769
-0.004087
-0.002723
-0.001359
0.000687
0.002051
0.003415
0.002733
0.004097
0.004097
0.003415
0.003415
0.004097
0.002733
0.002733
0.001369
0.000687
0.000687
0.000687
-0.001359
-0.003405
-0.001359
-0.002041
0.000005
0.000005
0.001369
0.002051
0.002051
0.000687
0.000005
0.002051
0.000005
0.000687
-0.000677
-0.000677
-0.001359
-0.000677
-0.001359
-0.002041
-0.001359
-0.000677
-0.001359
0.000005
0.001369
0.000687
0.000687
0.002051
0.003415
0.002733
0.003415
0.002051
0.000687
0.001369
0.000687
0.000687
-0.000677
-0.001359
-0.000677
0.000687
0.000005
0.000687
0.002733
0.002051
0.002051
0.003415
0.002733
0.004097
0.004097
0.003415
0.003415
0.002733
0.003415
0.001369
0.002051
-0.000677
0.000687
0.001369
0.002051
0.004097
0.005460
0.004779
0.003415
0.004097
0.003415
0.004779
0.006142
0.004097
0.002733
0.002051
0.002733
0.001369
0.001369
0.002051
0.003415
0.004779
0.005460
0.005460
0.005460
0.004779
0.003415
0.003415
0.004097
0.003415
0.003415
0.003415
0.002733
0.000687
0.001369
0.003415
0.002733
0.002733
0.002733
0.004779
0.003415
0.003415
0.004097
0.004097
0.004097
0.003415
-0.008179
-0.044322
-0.099561
-0.143206
-0.160255
-0.136387
-0.100243
-0.060689
-0.036139
-0.014316
-0.001359
0.003415
0.003415
0.006824
0.009552
0.010234
0.012280
0.015008
0.015008
0.015008
0.014326
0.013644
0.012280
0.012962
0.013644
0.011598
0.012962
0.012962
0.012280
0.011598
0.013644
0.016372
0.015690
0.017054
0.019100
0.021827
0.023873
0.027283
0.027965
0.027965
0.028647
0.027283
0.026601
0.024555
0.021827
0.019100
0.015690
0.013644
0.012280
0.009552
0.007506
0.004097
0.002733
0.002733
0.002733
0.002051
0.002051
0.002733
0.002733
0.001369
0.001369
0.000687
-0.000677
-0.001359
-0.001359
0.001369
0.000687
0.001369
0.002051
0.002733
0.004097
0.004779
0.004779
0.005460
0.006824
0.005460
0.004779
0.003415
0.002733
0.002733
0.002733
0.002733
0.003415
0.004779
0.004097
0.004779
0.002733
0.002733
0.003415
0.002733
0.003415
0.001369
-0.001359
-0.002041
-0.000677
-0.000677
-0.000677
-0.002041
-0.000677
-0.003405
-0.000677
-0.001359
-0.002041
-0.000677
-0.000677
-0.000677
0.000005
-0.002041
-0.003405
-0.003405
-0.004087
-0.004769
-0.004769
-0.004087
-0.003405
-0.004087
-0.002041
-0.002041
-0.001359
-0.001359
-0.002041
-0.001359
-0.002041
-0.002723
-0.003405
-0.003405
-0.003405
-0.002041
-0.002041
-0.006133
-0.014316
-0.043641
-0.087286
-0.126839
-0.137751
-0.118656
-0.085240
-0.053188
-0.031365
-0.012270
-0.002041
0.003415
0.004097
0.005460
0.006824
0.006142
0.008188
0.006142
0.006824
0.008188
0.008870
0.007506
0.009552
0.010234
0.011598
0.010916
0.012280
0.015008
0.015008
0.017054
0.016372
0.017054
0.018418
0.021145
0.022509
0.023873
0.023191
0.022509
0.024555
0.027283
0.027965
0.027283
0.027283
0.026601
0.027283
0.025919
0.023873
0.018418
0.015008
0.010234
0.006142
0.004097
0.003415
0.003415
0.002051
0.002051
0.002051
0.000687
0.000005
0.002051
0.001369
0.003415
0.004779
0.006142
0.006824
0.006824
0.008188
0.006824
0.010234
0.008188
0.008188
0.007506
0.006824
0.007506
0.006142
0.004097
0.004779
0.003415
0.003415
0.004097
0.002051
0.002733
0.003415
0.004097
0.005460
0.007506
0.006824
0.004779
0.004097
0.004097
0.002051
0.002733
0.003415
0.002733
0.001369
0.000687
0.000005
0.000687
0.002051
0.001369
0.002733
0.002733
0.002051
0.001369
0.000687
0.000687
-0.000677
-0.000677
-0.000677
0.000687
0.000687
0.002051
0.002733
0.001369
0.000005
0.000005
0.000005
0.000687
0.002733
0.001369
0.002733
0.003415
0.002733
0.001369
0.001369
0.000005
0.000687
0.000687
0.001369
0.001369
0.003415
0.002051
-0.008179
-0.034093
-0.087286
-0.133659
-0.157528
-0.139797
-0.102289
-0.064099
-0.036139
-0.015680
-0.000677
0.006142
0.008870
0.011598
0.010916
0.010916
0.011598
0.012962
0.014326
0.014326
0.014326
0.013644
0.011598
0.011598
0.013644
0.013644
0.014326
0.015690
0.015690
0.014326
0.015690
0.016372
0.017736
0.021145
0.021145
0.023191
0.025237
0.029329
0.028647
0.027283
0.025919
0.026601
0.026601
0.025919
0.023873
0.022509
0.017736
0.012962
0.010234
0.007506
0.006824
0.005460
0.003415
0.002051
0.003415
-0.000677
-0.001359
-0.001359
-0.002723
-0.002723
-0.004769
-0.004769
-0.002041
-0.002723
-0.001359
0.000005
0.000687
0.001369
0.002051
0.004097
0.004779
0.005460
0.006142
0.004779
0.006142
0.006142
0.006142
0.006142
0.005460
0.004779
0.004779
0.003415
0.002733
0.003415
0.004097
0.004097
0.003415
0.000005
-0.001359
-0.002723
-0.002041
-0.003405
-0.001359
0.000005
0.001369
0.001369
0.001369
0.000005
0.002051
0.001369
0.003415
0.002733
0.001369
0.000005
-0.000677
0.000005
0.000005
0.000687
-0.001359
-0.002041
-0.002723
-0.002723
-0.002723
-0.002041
-0.001359
0.000687
-0.000677
-0.001359
-0.000677
-0.000677
-0.000677
-0.002041
-0.001359
0.000005
0.000005
0.000687
0.002051
0.002733
0.000005
0.001369
-0.000677
-0.000677
-0.002041
-0.002041
-0.001359
-0.002723
0.000005
-0.001359
-0.002041
-0.002723
-0.012270
-0.034775
-0.080466
-0.122066
-0.143888
-0.131613
-0.100925
-0.062735
-0.035457
-0.016362
0.000005
0.004097
0.006824
0.009552
0.009552
0.010916
0.008870
0.010234
0.009552
0.008870
0.009552
0.008188
0.007506
0.008188
0.010916
0.009552
0.009552
0.010234
0.010916
0.010234
0.012280
0.012962
0.015008
0.016372
0.018418
0.017736
0.019782
0.020464
0.021145
0.021827
0.022509
0.023191
0.025237
0.023191
0.021827
0.019782
0.016372
0.012962
0.010234
0.006824
0.005460
0.004779
0.003415
0.001369
0.000687
0.000687
0.000687
0.000005
-0.000677
0.000005
0.000687
0.000005
-0.000677
0.000005
-0.000677
0.000005
-0.000677
0.000005
0.001369
0.002733
0.002051
0.000005
-0.001359
-0.000677
-0.002041
0.000687
-0.000677
-0.001359
0.000687
0.000005
0.001369
0.002733
0.002051
0.001369
0.000687
0.000687
0.001369
0.000687
0.000687
0.000687
0.000005
-0.000677
-0.001359
-0.002723
-0.002723
-0.002723
-0.002723
-0.002723
-0.001359
0.000005
-0.000677
0.000687
0.000005
0.000005
-0.000677
0.000687
0.002051
0.004097
0.002051
0.000687
0.000005
0.000005
-0.000677
-0.001359
-0.002041
-0.002041
-0.000677
-0.000677
-0.009543
-0.027955
-0.074329
-0.120020
-0.143888
-0.135705
-0.102289
-0.063417
-0.035457
-0.018408
-0.002723
0.004097
0.006142
0.008870
0.009552
0.011598
0.011598
0.014326
0.012280
0.011598
0.011598
0.011598
0.011598
0.009552
0.010234
0.011598
0.010234
0.012280
0.012962
0.013644
0.014326
0.015008
0.017736
0.019782
0.019782
0.019100
0.021145
0.023873
0.024555
0.028647
0.028647
0.029329
0.030011
0.029329
0.027283
0.024555
0.020464
0.015690
0.014326
0.010916
0.008870
0.006824
0.004097
0.002051
-0.000677
-0.001359
-0.001359
0.000687
0.000005
0.000005
0.001369
0.001369
0.000687
0.001369
0.002733
0.002733
0.005460
0.007506
0.008870
0.008870
0.008188
0.005460
0.004097
0.005460
0.005460
0.003415
0.002733
0.004097
0.004097
0.004779
0.003415
0.004097
0.004779
0.004097
0.005460
0.005460
0.007506
0.007506
0.005460
0.004779
0.004097
0.002733
0.004779
0.004097
0.003415
0.003415
0.004097
0.004097
0.005460
0.003415
0.003415
0.002051
0.002051
0.002733
0.002051
0.001369
0.001369
0.000687
0.001369
0.000687
0.002051
0.002733
0.002733
0.003415
0.004779
0.005460
0.005460
0.005460
0.004779
0.006142
0.005460
0.002051
0.000687
0.001369
0.000005
0.000005
0.000687
0.001369
0.000005
0.000687
0.002733
0.002733
-0.001359
-0.012270
-0.057280
-0.109790
-0.145252
-0.154118
-0.123430
-0.085922
-0.049096
-0.027955
-0.008179
0.002051
0.005460
0.006824
0.008870
0.012280
0.011598
0.010916
0.010916
0.010916
0.012280
0.012962
0.013644
0.016372
0.016372
0.014326
0.011598
0.012962
0.015690
0.014326
0.014326
0.015690
0.015690
0.016372
0.017736
0.020464
0.023191
0.024555
0.027965
0.030011
0.030011
0.032739
0.032739
0.032739
0.032739
0.027965
0.025237
0.020464
0.015008
0.010916
0.006142
0.004097
0.002051
0.002051
0.000687
-0.002041
-0.001359
-0.002041
-0.005451
-0.004769
-0.004087
-0.002041
-0.000677
0.000687
0.002051
0.003415
0.004097
0.003415
0.004097
0.005460
0.004779
0.006142
0.005460
0.006824
0.006824
0.006824
0.004779
0.002733
0.002051
0.002733
0.002733
0.003415
0.004097
0.002733
0.003415
0.004779
0.002733
0.003415
0.005460
0.004779
0.004097
0.004097
0.004779
0.003415
0.004097
0.004779
0.003415
-0.000677
-0.002041
-0.002041
-0.002041
-0.002041
-0.001359
-0.001359
-0.000677
0.000005
0.001369
0.001369
0.001369
0.000687
0.003415
0.001369
0.001369
0.003415
0.003415
0.003415
-0.000677
-0.002723
-0.002041
-0.004769
-0.004769
-0.004769
-0.000677
-0.002723
-0.001359
0.000005
-0.000677
0.000687
0.002733
0.002733
0.001369
0.003415
0.001369
-0.001359
-0.001359
-0.002041
-0.006815
-0.014998
-0.045686
-0.095469
-0.134341
-0.145252
-0.125475
-0.090696
-0.053188
-0.030683
-0.009543
0.000005
0.006142
0.008188
0.010234
0.011598
0.008188
0.006824
0.006142
0.005460
0.007506
0.008188
0.007506
0.009552
0.009552
0.008870
0.008188
0.008870
0.009552
0.008870
0.010234
0.012280
0.015008
0.015008
0.015008
0.014326
0.015008
0.017054
0.017736
0.018418
0.020464
0.021827
0.021827
0.021827
0.021827
0.021145
0.019100
0.017054
0.013644
0.009552
0.004779
0.001369
-0.001359
-0.002723
-0.003405
-0.003405
-0.002041
-0.004769
-0.004769
-0.003405
-0.003405
-0.004087
-0.003405
-0.002723
-0.000677
0.000005
-0.001359
-0.001359
-0.002041
-0.002041
-0.002041
-0.000677
-0.000677
0.000005
0.002051
0.003415
0.002733
0.002051
0.003415
0.003415
0.002051
0.000687
-0.001359
-0.002723
-0.002723
-0.002723
-0.004087
-0.004087
-0.004769
-0.002723
-0.002041
-0.004087
-0.000677
-0.000677
-0.001359
-0.002723
-0.002723
-0.001359
-0.000677
-0.001359
-0.000677
0.000005
0.001369
0.002733
0.002051
0.002051
0.002051
0.002733
0.002733
0.001369
0.000005
0.000005
0.000005
-0.000677
0.000687
0.001369
0.000687
0.002051
0.000687
0.000687
0.002051
0.000687
0.002733
0.002051
0.002733
0.003415
0.004097
0.004097
0.004779
0.004097
0.002051
0.002051
0.002733
0.002733
0.002051
0.001369
0.002051
0.002051
0.002051
0.003415
0.004779
0.003415
0.004779
0.004779
0.006142
0.004779
0.003415
0.002733
0.002051
0.002051
0.002733
0.001369
0.002733
0.002051
0.004097
0.004097
0.004779
0.004097
0.002733
0.002051
0.002733
0.001369
0.001369
0.002733
0.003415
0.003415
0.003415
0.002733
0.003415
0.002733
0.004097
0.002733
0.002733
-0.002041
-0.010907
-0.049096
-0.103653
-0.142524
-0.157528
-0.132295
-0.092741
-0.052506
-0.029319
-0.009543
0.002733
0.006142
0.008188
0.007506
0.008870
0.010234
0.010234
0.010916
0.009552
0.010234
0.012280
0.012280
0.013644
0.015008
0.015690
0.015008
0.015008
0.015008
0.017736
0.015690
0.017054
0.018418
0.018418
0.019100
0.021145
0.022509
0.024555
0.026601
0.029329
0.029329
0.030011
0.031375
0.031375
0.031375
0.030011
0.027283
0.023191
0.017736
0.014326
0.012280
0.010234
0.007506
0.005460
0.004097
0.002733
0.000005
0.001369
-0.001359
-0.001359
-0.001359
0.000005
-0.000677
-0.000677
0.000687
0.000005
0.002051
0.002733
0.004779
0.006142
0.005460
0.003415
0.003415
0.004097
0.004097
0.005460
0.005460
0.005460
0.004779
0.004779
0.004097
0.005460
0.004097
0.005460
0.004779
0.004779
0.004097
0.002733
0.002051
0.003415
0.003415
0.003415
0.002733
0.002733
0.002051
0.002051
0.002051
0.003415
0.003415
0.002051
0.000005
-0.000677
-0.000677
0.000687
0.001369
0.002051
0.002733
0.002733
0.002733
0.002733
0.000687
0.000687
0.000687
0.002733
0.002733
-0.008179
-0.035457
-0.087968
-0.130931
-0.152754
-0.137751
-0.101607
-0.063417
-0.034775
-0.017044
-0.002041
0.004097
0.005460
0.006824
0.008870
0.010234
0.010916
0.012280
0.012962
0.013644
0.014326
0.013644
0.013644
0.014326
0.015008
0.012280
0.012280
0.014326
0.015690
0.015008
0.015690
0.017054
0.017736
0.020464
0.019782
0.023873
0.023873
0.026601
0.028647
0.030693
0.030011
0.030011
0.029329
0.027965
0.025237
0.022509
0.019100
0.015690
0.012280
0.007506
0.004779
0.004097
0.001369
0.001369
0.001369
0.000005
0.000005
0.000687
0.001369
0.000687
0.001369
0.001369
0.000687
0.000005
0.000687
0.000005
0.000687
0.002051
0.003415
0.003415
0.004779
0.007506
0.006824
0.007506
0.004779
0.004779
0.004097
0.003415
0.004097
0.004097
0.002733
0.002051
0.002051
0.002051
0.003415
0.002051
0.002733
0.000687
-0.000677
0.000687
0.001369
-0.000677
0.001369
0.001369
0.003415
0.002051
0.001369
0.002733
0.002733
0.002051
0.002051
0.000687
0.000687
-0.000677
0.000687
0.000005
-0.000677
-0.000677
-0.002041
0.001369
-0.004769
-0.012270
-0.038867
-0.085240
-0.126157
-0.141161
-0.125475
-0.092741
-0.054552
-0.032047
-0.014998
-0.002041
0.000005
0.000005
0.002051
0.006142
0.005460
0.006142
0.007506
0.008188
0.007506
0.008870
0.010234
0.010234
0.010234
0.011598
0.012280
0.014326
0.013644
0.015008
0.015690
0.015008
0.014326
0.015008
0.015008
0.015008
0.015690
0.019100
0.019782
0.021827
0.022509
0.024555
0.023873
0.023191
0.023191
0.023873
0.020464
0.017736
0.013644
0.006824
0.004097
0.002051
0.000005
-0.001359
-0.000677
-0.001359
-0.002723
-0.002723
-0.002041
-0.001359
-0.002723
-0.000677
-0.001359
0.000005
0.002733
0.003415
0.003415
0.004097
0.004779
0.004779
0.004779
0.003415
0.002733
0.001369
0.002051
0.001369
0.002051
0.001369
0.001369
0.001369
0.002051
0.001369
0.001369
0.002051
0.002733
0.002051
0.002733
0.002051
0.003415
0.004097
0.002733
0.002733
0.002051
0.000687
-0.002723
-0.001359
0.000005
0.002051
0.002733
0.002051
0.001369
0.001369
0.002733
0.004097
0.004097
0.004779
-0.002723
-0.015680
-0.060008
-0.105017
-0.134341
-0.132977
-0.102971
-0.066827
-0.040231
-0.025228
-0.008861
-0.001359
0.001369
0.003415
0.005460
0.006142
0.007506
0.008188
0.008188
0.008870
0.011598
0.010916
0.012962
0.012280
0.014326
0.013644
0.015008
0.015690
0.015008
0.016372
0.018418
0.016372
0.014326
0.015690
0.016372
0.017736
0.021145
0.022509
0.025237
0.027283
0.027965
0.028647
0.030011
0.030693
0.028647
0.027965
0.021827
0.018418
0.012280
0.006142
0.002733
0.002051
0.002051
0.002051
0.000005
-0.001359
-0.000677
-0.000677
-0.000677
0.000005
0.001369
0.002051
0.002733
0.006142
0.007506
0.004779
0.004097
0.004097
0.002733
0.004097
0.005460
0.005460
0.004779
0.006142
0.006142
0.004779
0.005460
0.004779
0.004779
0.004779
0.004097
0.004779
0.004097
0.002051
0.000687
0.001369
0.002051
0.001369
0.002733
0.002051
0.002051
0.004097
0.002733
0.003415
0.002733
0.004097
0.002733
0.003415
0.003415
0.002733
0.002733
0.001369
0.001369
0.001369
0.000687
0.000687
-0.001359
0.001369
0.001369
0.002051
0.001369
0.001369
0.003415
0.002733
0.001369
0.000005
0.000005
0.000005
0.001369
0.001369
0.002733
0.002733
0.002051
0.002051
0.001369
0.001369
0.000687
0.000687
0.001369
0.000687
0.000687
0.000687
0.002733
0.000005
-0.010907
-0.054552
-0.109790
-0.148662
-0.160937
-0.128203
-0.090696
-0.053870
-0.030001
-0.012270
0.000005
0.002733
0.004779
0.007506
0.008870
0.010234
0.011598
0.013644
0.013644
0.015690
0.015690
0.015008
0.017736
0.016372
0.016372
0.015008
0.012962
0.013644
0.012962
0.014326
0.013644
0.015690
0.018418
0.020464
0.021827
0.024555
0.026601
0.030011
0.032057
0.034103
0.034103
0.034103
0.030693
0.027283
0.024555
0.021145
0.017736
0.012962
0.008188
0.005460
0.001369
-0.000677
-0.004087
-0.002723
-0.002041
-0.002041
-0.001359
0.000005
0.000005
-0.001359
-0.000677
0.000005
0.001369
0.000687
0.000687
0.000687
0.002051
0.002051
0.003415
0.004097
0.004097
0.003415
0.002051
0.002051
0.000687
0.000005
0.002051
0.004779
0.004779
0.004097
0.004097
0.003415
0.004779
0.004779
0.002733
0.002733
0.003415
0.002051
0.000687
0.001369
-0.000677
0.000005
0.000005
0.001369
0.000005
0.000687
0.000687
0.001369
0.000687
0.002051
0.002733
0.003415
0.004097
0.002051
0.000005
-0.001359
-0.002041
-0.000677
-0.001359
0.000005
-0.000677
0.000687
0.000005
0.000687
0.002733
0.001369
0.001369
0.001369
-0.001359
0.000687
0.000005
0.000005
0.000687
0.001369
0.002733
0.002733
0.002733
0.002051
0.003415
0.004097
0.004779
0.002051
0.001369
-0.000677
0.001369
0.000687
0.003415
0.002051
0.000687
0.001369
-0.000677
0.001369
0.001369
0.001369
0.002733
0.003415
0.002733
0.002051
-0.006133
-0.019772
-0.063417
-0.109790
-0.139115
-0.137069
-0.108427
-0.066145
-0.036821
-0.017044
-0.001359
0.004097
0.006142
0.008188
0.008870
0.006824
0.008188
0.009552
0.008188
0.008188
0.008870
0.010234
0.010234
0.012962
0.012280
0.012962
0.014326
0.012280
0.012962
0.013644
0.015008
0.015008
0.014326
0.013644
0.015008
0.015690
0.016372
0.019100
0.019782
0.021145
0.021827
0.021827
0.021145
0.020464
0.020464
0.017736
0.014326
0.010916
0.008188
0.006824
0.004779
0.002051
0.000687
-0.000677
0.000005
-0.001359
-0.001359
-0.002041
-0.000677
-0.000677
0.000005
-0.000677
0.000005
0.000005
0.001369
0.001369
0.001369
0.004097
0.003415
0.003415
0.001369
0.002051
0.001369
0.002051
0.001369
0.002051
0.001369
0.000687
0.001369
0.001369
0.001369
0.003415
0.002051
0.001369
0.002733
0.002733
0.002733
0.003415
0.002051
0.002051
0.002733
0.002733
0.000687
-0.000677
0.002051
0.001369
0.002051
0.000687
0.000005
-0.000677
0.000005
0.000687
0.000005
0.000005
0.001369
0.001369
0.000687
0.001369
0.003415
0.002733
0.003415
0.004097
0.001369
0.000687
-0.001359
0.000005
-0.000677
0.001369
0.001369
0.001369
-0.003405
-0.012952
-0.045004
-0.096833
-0.137069
-0.150026
-0.127521
-0.089332
-0.052506
-0.030001
-0.010225
0.002051
0.006142
0.008188
0.008870
0.010916
0.010916
0.012280
0.012962
0.011598
0.011598
0.011598
0.010234
0.009552
0.010234
0.011598
0.010234
0.011598
0.012280
0.011598
0.013644
0.015008
0.015008
0.017736
0.019100
0.021145
0.023191
0.027283
0.030011
0.032057
0.032057
0.027965
0.026601
0.025919
0.025237
0.023873
0.020464
0.016372
0.012962
0.009552
0.007506
0.004779
0.003415
0.002051
0.002733
0.000005
0.000687
0.001369
0.000687
0.001369
0.001369
0.002051
0.002051
-0.000677
0.000687
0.000687
0.001369
0.002051
0.002733
0.003415
0.003415
0.002051
0.002733
0.002051
0.003415
0.003415
0.002733
0.004779
0.003415
0.003415
0.004097
0.003415
0.004779
0.005460
0.007506
0.008188
0.005460
0.002051
0.002051
0.002051
0.002733
0.001369
0.003415
0.004097
0.003415
0.002051
0.002051
0.000687
0.000687
0.000687
0.001369
0.002733
0.003415
0.005460
0.006824
0.007506
0.004779
0.004097
0.003415
0.001369
0.000687
0.000005
0.000005
-0.000677
0.000005
0.000005
0.000687
0.000687
0.002051
0.003415
0.004097
0.003415
0.004097
0.005460
0.006142
0.005460
0.002733
0.001369
0.003415
0.004779
0.004779
0.004097
0.002733
0.002051
0.003415
0.001369
-0.008861
-0.039549
-0.094787
-0.139115
-0.157528
-0.134341
-0.095469
-0.055234
-0.031365
-0.014316
-0.002041
0.004779
0.007506
0.011598
0.012280
0.012280
0.012280
0.012962
0.013644
0.014326
0.016372
0.016372
0.018418
0.018418
0.021145
0.024555
0.023873
0.021145
0.019782
0.018418
0.018418
0.020464
0.019782
0.021827
0.022509
0.024555
0.027965
0.028647
0.030693
0.032057
0.033421
0.035467
0.035467
0.034785
0.033421
0.029329
0.022509
0.017736
0.014326
0.009552
0.007506
0.004097
0.002733
0.000005
0.000005
-0.000677
0.000005
0.000687
0.001369
0.000687
-0.001359
0.000687
0.000687
0.002733
0.002733
0.004779
0.006142
0.006824
0.006824
0.008870
0.008870
0.010234
0.008188
0.009552
0.007506
0.003415
0.003415
0.004097
0.004779
0.004779
0.004779
0.005460
0.004779
0.004779
0.004779
0.002733
0.004779
0.005460
0.004779
0.006142
0.005460
0.005460
0.003415
0.002051
0.000005
-0.008861
-0.027274
-0.074329
-0.116610
-0.142524
-0.134341
-0.101607
-0.061371
-0.037503
-0.020454
-0.004769
0.002051
0.004779
0.006142
0.006142
0.007506
0.006824
0.008188
0.008188
0.008870
0.007506
0.009552
0.009552
0.007506
0.007506
0.007506
0.006824
0.008188
0.009552
0.010916
0.010234
0.012280
0.011598
0.012280
0.012962
0.017736
0.018418
0.021145
0.023873
0.023873
0.025237
0.024555
0.023873
0.020464
0.016372
0.012962
0.010234
0.006824
0.002733
0.000687
-0.000677
-0.003405
-0.002723
-0.002723
-0.000677
-0.002723
-0.004087
-0.002041
-0.000677
0.000687
0.000687
0.000687
0.000687
0.002051
0.001369
0.000687
0.000687
0.000687
0.001369
0.000687
0.000005
0.000687
0.000005
-0.000677
0.000005
-0.001359
-0.001359
-0.001359
-0.001359
-0.000677
0.000005
-0.000677
0.000005
-0.000677
-0.001359
-0.002723
-0.002041
-0.002041
-0.003405
-0.002723
-0.002723
-0.002723
-0.002723
-0.001359
-0.002041
-0.000677
-0.000677
0.000687
0.002051
0.002733
0.002051
0.003415
0.002733
0.002051
0.001369
-0.001359
-0.002041
-0.000677
-0.000677
0.000005
0.000687
0.001369
0.000687
0.001369
0.001369
0.002051
0.002051
0.002051
-0.001359
-0.010907
-0.040231
-0.092741
-0.134341
-0.152754
-0.130931
-0.092741
-0.051824
-0.027955
-0.012952
-0.002041
0.001369
0.003415
0.002051
0.003415
0.003415
0.004779
0.006142
0.006824
0.007506
0.008188
0.009552
0.010916
0.010234
0.012962
0.013644
0.014326
0.013644
0.014326
0.015008
0.015690
0.015690
0.017054
0.019100
0.019782
0.021145
0.021827
0.021827
0.023191
0.025237
0.026601
0.026601
0.027283
0.025919
0.021827
0.017736
0.014326
0.010234
0.007506
0.004097
0.001369
0.000005
-0.002041
-0.002723
-0.004087
-0.003405
-0.003405
-0.004769
-0.003405
-0.001359
0.000687
0.002733
0.003415
0.003415
0.004779
0.003415
0.004097
0.005460
0.006142
0.006824
0.006824
0.006142
0.005460
0.005460
0.006142
0.006142
0.004779
0.005460
0.004779
0.004779
0.005460
0.004097
0.003415
0.003415
0.006142
0.006142
0.006824
0.006824
0.004779
0.003415
0.002051
0.000687
-0.000677
-0.000677
0.000687
0.000005
0.002051
0.002733
0.002733
0.004097
0.004779
0.004097
0.004779
0.005460
0.004779
0.004779
0.002733
0.002051
0.000687
0.000687
0.002733
0.002733
0.002733
0.004097
0.002733
0.002733
0.003415
0.003415
0.002733
0.002051
0.001369
0.000005
-0.000677
0.000687
0.000687
0.002051
0.001369
0.003415
0.004097
0.002051
0.004097
0.002733
0.001369
0.001369
0.000005
0.000005
0.000687
0.000005
0.000687
0.000005
0.000687
0.000687
0.000687
0.001369
0.001369
0.003415
0.003415
0.004097
0.004097
0.004779
0.003415
0.004779
0.002733
0.002051
0.001369
0.000005
0.000687
-0.000677
-0.000677
0.000005
0.000687
-0.007497
-0.024546
-0.079102
-0.131613
-0.158209
-0.150708
-0.113200
-0.070919
-0.040913
-0.022500
-0.006815
0.000687
0.003415
0.006142
0.007506
0.006142
0.005460
0.008188
0.008188
0.008188
0.009552
0.011598
0.011598
0.012280
0.011598
0.013644
0.013644
0.014326
0.015008
0.016372
0.017054
0.018418
0.018418
0.018418
0.021145
0.019782
0.019782
0.021145
0.021827
0.021145
0.023191
0.025237
0.025237
0.025237
0.023873
0.021145
0.019100
0.016372
0.012280
0.011598
0.008188
0.006142
0.003415
0.000005
-0.002041
-0.003405
-0.004769
-0.006133
-0.006815
-0.006133
-0.005451
-0.005451
-0.003405
-0.003405
-0.001359
0.000005
0.002733
0.004779
0.006142
0.005460
0.005460
0.006142
0.007506
0.007506
0.006824
0.005460
0.004779
0.004097
0.004097
0.004097
0.004097
0.004097
0.003415
0.001369
0.001369
0.002051
0.001369
0.002733
0.003415
0.003415
0.003415
0.002733
0.002733
0.001369
0.002051
0.002733
0.002051
0.000687
0.000005
-0.001359
-0.001359
-0.001359
0.000005
0.000687
0.000005
-0.000677
0.000687
0.002051
0.001369
0.002733
0.002733
0.002733
0.003415
0.002051
-0.000677
-0.000677
-0.001359
-0.002041
-0.002041
-0.002723
-0.002041
-0.000677
0.000687
0.000687
0.002051
0.002051
0.002733
0.003415
0.004097
0.003415
0.003415
-0.000677
-0.001359
-0.004769
-0.012952
-0.028637
-0.075693
-0.120702
-0.145934
-0.139115
-0.107745
-0.067509
-0.040913
-0.022500
-0.004087
0.002051
0.002733
0.003415
0.005460
0.006142
0.005460
0.008188
0.007506
0.007506
0.008188
0.007506
0.006824
0.005460
0.006142
0.006824
0.007506
0.006824
0.006142
0.008188
0.008188
0.008188
0.010916
0.011598
0.013644
0.015008
0.019100
0.020464
0.023191
0.024555
0.023873
0.022509
0.021145
0.019782
0.019100
0.015690
0.012962
0.010234
0.006824
0.004097
0.001369
0.000687
0.000005
0.000687
0.001369
0.002733
0.002733
0.002051
0.002051
0.000005
0.000687
0.000687
0.000687
0.001369
0.002733
0.003415
0.004779
0.006142
0.006142
0.006824
0.008870
0.008870
0.007506
0.005460
0.004779
0.005460
0.006142
0.006142
0.004097
0.003415
0.004097
0.003415
0.004779
0.004779
0.006824
0.007506
0.006824
0.006142
0.006142
0.006142
0.006142
0.004779
0.004097
0.003415
0.003415
0.003415
0.005460
0.004779
0.004097
0.005460
0.005460
0.003415
0.004097
0.002051
0.002051
0.002733
0.002733
0.004779
0.005460
0.004097
0.006142
0.007506
0.006142
0.005460
0.005460
0.005460
0.000687
-0.001359
-0.000677
0.000687
0.000005
0.001369
0.000687
0.000005
0.001369
0.002733
0.002733
0.003415
0.004779
0.005460
0.008188
0.008188
0.006142
0.007506
0.007506
0.007506
0.006824
0.006142
0.005460
0.005460
0.004097
0.003415
-0.006133
-0.032047
-0.088650
-0.134341
-0.157528
-0.141161
-0.104335
-0.064099
-0.034775
-0.015680
0.001369
0.008870
0.010916
0.012962
0.012962
0.013644
0.012280
0.011598
0.011598
0.010234
0.008188
0.009552
0.010234
0.011598
0.014326
0.015690
0.017054
0.016372
0.019100
0.019782
0.018418
0.019782
0.019100
0.020464
0.023873
0.024555
0.027283
0.028647
0.029329
0.028647
0.028647
0.029329
0.029329
0.030011
0.028647
0.024555
0.023191
0.017054
0.011598
0.009552
0.006824
0.005460
0.005460
0.004779
0.004779
0.003415
0.002051
-0.000677
-0.002041
-0.003405
-0.004087
-0.002723
-0.002041
-0.000677
-0.000677
-0.001359
-0.000677
0.002733
0.003415
0.004097
0.004097
0.007506
0.007506
0.008870
0.008870
0.008188
0.007506
0.006824
0.004779
0.004097
0.002733
0.000687
0.000687
-0.001359
-0.000677
-0.000677
0.000687
-0.000677
0.000005
0.000687
0.000687
-0.001359
-0.002041
0.000005
0.000005
0.000687
0.002051
0.001369
0.000687
-0.004769
-0.014998
-0.053870
-0.104335
-0.142524
-0.151390
-0.122066
-0.082512
-0.048414
-0.028637
-0.010907
-0.003405
-0.000677
0.002051
0.004097
0.006824
0.008188
0.008870
0.009552
0.010916
0.010916
0.011598
0.010916
0.010916
0.010916
0.011598
0.010916
0.010916
0.011598
0.012962
0.015008
0.016372
0.017054
0.019782
0.021827
0.025237
0.025919
0.027283
0.029329
0.032057
0.032739
0.031375
0.030011
0.026601
0.023873
0.019782
0.017054
0.013644
0.009552
0.006142
0.004779
0.004097
0.002051
0.002051
0.002051
0.002051
0.002733
0.001369
0.001369
0.002733
0.003415
0.003415
0.003415
0.003415
0.002733
0.004097
0.003415
0.003415
0.005460
0.006142
0.006824
0.005460
0.006142
0.004097
0.004097
0.004097
0.004097
0.002051
-0.000677
0.000687
0.001369
0.000005
0.000687
0.001369
0.001369
0.002051
0.002051
0.002733
0.002733
0.004097
0.001369
0.002051
0.002733
0.003415
0.002733
0.004097
0.005460
0.004097
0.002051
0.001369
0.000005
-0.000677
0.000005
0.000005
0.001369
0.000687
0.000005
0.000005
-0.001359
-0.002041
-0.000677
0.000687
0.002733
0.001369
-0.008179
-0.025910
-0.070919
-0.116610
-0.143888
-0.139797
-0.107745
-0.069555
-0.040913
-0.023864
-0.005451
0.002051
0.004779
0.003415
0.002733
0.003415
0.002733
0.005460
0.005460
0.006142
0.006824
0.009552
0.008870
0.010234
0.012962
0.013644
0.015008
0.018418
0.017736
0.015008
0.013644
0.011598
0.011598
0.012962
0.014326
0.015690
0.016372
0.019100
0.019782
0.020464
0.022509
0.025237
0.024555
0.023191
0.021827
0.021145
0.017054
0.014326
0.011598
0.009552
0.007506
0.008188
0.006142
0.005460
0.002733
0.002051
0.001369
-0.000677
-0.000677
-0.001359
-0.002041
0.000005
0.000687
0.000687
0.002051
0.000005
0.002051
0.004779
0.004779
0.007506
0.009552
0.008870
0.009552
0.010234
0.008870
0.008188
0.009552
0.008188
0.008188
0.004779
0.004097
0.004779
0.004097
0.002733
0.004779
0.006142
0.004779
0.004779
0.004097
0.002051
0.000687
0.000687
0.001369
0.000687
0.001369
0.000687
-0.000677
-0.001359
-0.000677
-0.000677
-0.003405
-0.002723
-0.002723
-0.002041
-0.002723
-0.003405
-0.003405
-0.004087
-0.003405
-0.005451
-0.004087
-0.002723
-0.001359
0.000687
0.000687
0.001369
0.001369
0.000005
-0.000677
-0.002041
-0.002723
-0.003405
-0.004087
-0.004769
-0.003405
-0.001359
-0.000677
0.000005
0.000687
0.000687
0.002051
0.002051
0.004097
0.004779
0.004779
0.003415
0.001369
-0.000677
-0.001359
-0.002041
-0.003405
-0.003405
-0.002041
-0.004087
-0.012952
-0.042277
-0.092060
-0.133659
-0.147298
-0.126839
-0.092060
-0.053870
-0.030001
-0.009543
0.002051
0.006824
0.010234
0.010916
0.012280
0.012280
0.012280
0.011598
0.008870
0.008188
0.009552
0.009552
0.010916
0.010916
0.012280
0.012962
0.015008
0.015690
0.015690
0.017736
0.019782
0.020464
0.021145
0.021145
0.021827
0.024555
0.025237
0.025919
0.025237
0.024555
0.025237
0.023873
0.023191
0.022509
0.020464
0.019100
0.016372
0.014326
0.011598
0.008870
0.005460
0.005460
0.002733
0.001369
0.000687
0.000687
0.001369
0.000005
-0.001359
-0.002041
-0.002723
-0.002723
-0.003405
-0.003405
-0.003405
-0.000677
0.000005
0.002733
0.004097
0.006142
0.007506
0.006142
0.005460
0.006824
0.007506
0.007506
0.007506
0.006142
0.004097
0.004779
0.004097
0.003415
0.002051
0.004097
0.002051
0.002051
0.000687
-0.000677
0.000687
0.001369
0.000687
0.000687
0.003415
0.002051
0.003415
0.003415
0.003415
0.002733
0.002051
0.001369
0.002051
0.000687
-0.002041
-0.002723
-0.002723
-0.003405
-0.002723
-0.000677
0.000687
-0.000677
-0.000677
0.001369
0.001369
0.002733
0.002733
0.003415
0.004097
0.004097
0.002051
0.001369
0.001369
0.002051
0.000005
-0.001359
0.000005
0.000005
0.000005
-0.000677
0.000005
0.000005
0.001369
0.002733
0.003415
0.001369
0.002051
0.002733
0.002733
0.002733
0.004097
0.003415
0.004097
0.004097
0.003415
0.002051
0.001369
0.000005
-0.000677
0.000005
0.000687
0.002051
0.002051
0.002733
0.002733
0.002733
0.002733
0.004097
0.002051
0.002733
0.002733
0.004097
0.002733
0.003415
0.003415
-0.004087
-0.022500
-0.074329
-0.127521
-0.156846
-0.154118
-0.118656
-0.080466
-0.045686
-0.023864
-0.003405
0.004097
0.006142
0.008870
0.010234
0.010916
0.012280
0.012962
0.013644
0.012962
0.012280
0.013644
0.011598
0.010234
0.011598
0.011598
0.012280
0.012962
0.013644
0.012962
0.014326
0.016372
0.018418
0.018418
0.021827
0.023191
0.026601
0.028647
0.031375
0.032739
0.032739
0.032739
0.029329
0.026601
0.025237
0.022509
0.020464
0.015690
0.010916
0.008188
0.006142
0.003415
0.002051
0.004779
0.002051
0.002733
0.002051
0.003415
0.003415
0.002051
0.000687
-0.000677
-0.002041
-0.002723
-0.000677
0.000687
0.001369
0.002733
0.002733
0.002733
0.004097
0.005460
0.007506
0.007506
0.007506
0.008870
0.008188
0.006142
0.006142
0.004779
0.006142
0.004097
0.004097
0.005460
0.004097
0.004097
0.004097
0.004097
0.005460
0.005460
0.002733
0.002733
0.002733
0.001369
0.000687
0.001369
-0.000677
-0.000677
0.000687
0.000005
0.000687
0.002051
0.002051
0.000687
0.000005
-0.000677
-0.001359
-0.001359
-0.000677
-0.000677
0.001369
0.001369
0.000687
0.001369
0.003415
0.002733
0.001369
0.002051
0.002051
0.001369
0.001369
0.000687
-0.000677
-0.001359
-0.000677
-0.000677
0.000687
0.002051
0.002733
0.003415
0.004097
0.003415
0.003415
-0.005451
-0.021136
-0.064099
-0.111836
-0.144570
-0.146616
-0.116610
-0.079102
-0.045686
-0.026592
-0.008861
-0.000677
0.004779
0.007506
0.008188
0.010916
0.012962
0.013644
0.014326
0.013644
0.011598
0.010234
0.009552
0.007506
0.008188
0.008870
0.008188
0.010234
0.009552
0.010234
0.012280
0.013644
0.013644
0.016372
0.018418
0.021827
0.024555
0.024555
0.027283
0.026601
0.025237
0.023873
0.023191
0.020464
0.019100
0.016372
0.012280
0.009552
0.006824
0.003415
0.000005
-0.002723
-0.004087
-0.004087
-0.002723
-0.002041
-0.001359
0.000005
0.000687
0.000687
0.000687
0.000687
-0.000677
0.000005
0.000687
0.000005
-0.000677
-0.000677
0.000005
-0.001359
0.000005
0.001369
0.001369
0.002733
0.002051
0.002733
0.003415
0.003415
0.002733
0.002733
0.001369
0.000687
-0.000677
-0.001359
-0.001359
-0.001359
-0.001359
-0.000677
-0.001359
-0.000677
0.000687
0.002733
0.002733
0.004097
0.003415
0.004779
0.002733
0.002051
0.000687
0.001369
0.001369
0.000005
0.000687
0.001369
0.003415
0.002733
0.002051
0.002051
0.002733
0.002733
0.003415
0.004097
0.002733
0.000687
0.000687
0.001369
0.000687
0.000687
0.002051
0.001369
0.000687
0.000005
0.002051
0.002733
0.002733
0.002733
0.002733
0.004097
0.003415
0.004097
0.002733
0.001369
0.000687
0.001369
0.000687
0.002051
0.001369
0.002051
0.002051
0.002051
0.002733
0.003415
0.003415
0.004779
0.004779
0.004779
0.002733
0.002051
0.001369
0.000005
0.002051
0.004097
0.004097
0.003415
0.004779
0.003415
0.004779
0.004097
0.004097
0.004097
0.004097
0.004097
0.002733
0.002051
0.001369
0.000687
0.001369
0.002051
-0.001359
-0.012952
-0.057280
-0.111154
-0.146616
-0.154118
-0.122066
-0.085240
-0.048414
-0.025910
-0.006815
0.002051
0.005460
0.008188
0.010234
0.011598
0.010916
0.012280
0.012962
0.012962
0.017054
0.015690
0.017736
0.018418
0.018418
0.019782
0.017736
0.016372
0.013644
0.014326
0.013644
0.011598
0.013644
0.016372
0.018418
0.019782
0.021827
0.024555
0.026601
0.030011
0.030693
0.032057
0.032739
0.032057
0.030693
0.027283
0.024555
0.021145
0.018418
0.014326
0.011598
0.009552
0.007506
0.005460
0.004097
0.002051
0.001369
0.002051
0.002051
-0.000677
-0.000677
0.000005
0.001369
0.001369
0.001369
0.000687
0.002051
0.004097
0.006824
0.007506
0.006824
0.008188
0.006824
0.006142
0.006142
0.006142
0.006142
0.005460
0.004779
0.006142
0.004779
0.004779
0.003415
0.004097
0.004097
0.006824
0.005460
0.004779
0.005460
0.005460
0.004097
0.003415
0.004779
0.004097
0.004097
0.002051
0.001369
0.001369
0.002051
0.001369
0.000687
0.001369
0.000687
0.000687
0.001369
-0.001359
0.000005
0.001369
0.001369
0.000687
0.001369
0.001369
-0.000677
0.000005
0.000005
0.000005
-0.001359
-0.003405
-0.004087
-0.004769
-0.003405
-0.004769
-0.002041
-0.003405
-0.002723
-0.002723
-0.001359
0.000687
0.001369
0.001369
0.002051
0.003415
0.004097
0.002051
0.001369
0.000005
0.001369
-0.001359
-0.002041
-0.000677
-0.009543
-0.023864
-0.068873
-0.117292
-0.150026
-0.148662
-0.116610
-0.078420
-0.042959
-0.024546
-0.007497
0.000687
0.003415
0.004779
0.005460
0.005460
0.006824
0.008188
0.008870
0.009552
0.010234
0.008870
0.009552
0.010234
0.011598
0.012280
0.012280
0.011598
0.009552
0.010916
0.011598
0.011598
0.012962
0.014326
0.015690
0.017736
0.018418
0.019782
0.022509
0.022509
0.021827
0.021827
0.020464
0.018418
0.017736
0.017054
0.014326
0.012280
0.009552
0.007506
0.004779
0.002733
0.002051
0.002051
0.002051
0.002051
0.000687
0.001369
0.000005
-0.002723
-0.001359
-0.002041
-0.002041
-0.002041
-0.002041
-0.000677
0.002051
0.002051
0.002733
0.002733
0.002051
0.002051
0.003415
0.001369
0.003415
0.004779
0.002733
0.003415
0.003415
0.002733
0.002733
0.000687
0.000687
0.000687
-0.000677
0.000687
0.002051
0.000687
-0.001359
-0.001359
-0.000677
0.000687
0.001369
0.001369
0.001369
0.001369
0.000005
-0.002041
-0.002041
-0.002723
-0.002723
-0.002723
-0.002041
-0.002723
-0.003405
-0.001359
-0.002041
-0.000677
-0.001359
0.000005
0.000687
0.001369
0.002051
0.002051
0.000687
0.002733
0.002051
0.000005
0.001369
0.000687
0.000687
0.000005
-0.002041
-0.002723
-0.002723
-0.000677
0.000005
0.000687
0.000005
0.000005
0.001369
0.001369
0.001369
0.001369
0.000687
0.000005
0.000687
-0.000677
0.000687
0.002051
0.002733
0.004097
0.000005
-0.011588
-0.044322
-0.094105
-0.135705
-0.152754
-0.130931
-0.096151
-0.059326
-0.034775
-0.015680
-0.001359
0.002733
0.005460
0.006142
0.008870
0.008188
0.009552
0.009552
0.010234
0.014326
0.012962
0.010916
0.010234
0.009552
0.010234
0.008870
0.009552
0.008870
0.010234
0.010234
0.010916
0.010234
0.012962
0.014326
0.017054
0.019100
0.023873
0.025237
0.027965
0.029329
0.030693
0.032057
0.031375
0.029329
0.026601
0.023191
0.019782
0.015690
0.008870
0.002733
-0.001359
-0.002723
-0.004769
-0.005451
-0.004769
-0.003405
-0.004087
-0.004087
-0.002723
-0.003405
-0.001359
-0.000677
0.001369
0.002733
0.003415
0.002733
0.001369
0.000687
0.001369
0.001369
0.002051
0.003415
0.002733
0.004097
0.003415
0.004097
0.004097
0.003415
0.003415
0.002733
0.002733
0.002051
0.002051
0.003415
0.002733
0.002051
0.002051
0.002733
0.004097
0.005460
0.004779
0.005460
0.005460
0.002733
0.001369
0.001369
0.001369
0.002733
0.002733
0.002733
0.002051
0.002733
0.004097
0.002733
0.002051
0.002051
0.002051
0.002051
0.001369
0.002051
0.002051
0.002051
0.002051
0.002051
0.001369
0.001369
0.002733
0.002051
0.000005
0.000687
0.000687
0.000005
0.001369
0.001369
0.004097
0.004779
0.003415
0.002733
0.001369
0.003415
0.003415
0.004097
0.003415
0.002733
0.004779
0.005460
0.004779
0.004779
0.004097
0.004097
0.004779
0.004779
0.004097
0.004097
0.003415
0.000687
-0.000677
-0.004769
-0.015680
-0.060689
-0.111154
-0.147298
-0.155482
-0.124112
-0.086604
-0.049778
-0.027955
-0.006815
0.002733
0.008188
0.009552
0.012280
0.015008
0.014326
0.015008
0.014326
0.011598
0.012280
0.012280
0.011598
0.011598
0.011598
0.013644
0.014326
0.014326
0.015008
0.015008
0.017054
0.017736
0.019100
0.019782
0.019782
0.023191
0.023873
0.025919
0.026601
0.027283
0.030011
0.029329
0.028647
0.026601
0.025237
0.021827
0.020464
0.015690
0.010916
0.007506
0.005460
0.004779
0.002733
0.000687
-0.000677
-0.001359
-0.002723
-0.004087
-0.002723
-0.001359
-0.002041
-0.001359
0.000005
0.000005
-0.000677
-0.000677
-0.001359
-0.002041
-0.001359
-0.002723
-0.002723
-0.004087
-0.002723
-0.001359
0.000005
0.000687
0.002051
0.002051
0.002733
0.003415
0.006824
0.006824
0.006824
0.006824
0.005460
0.002051
0.003415
0.002733
0.000687
0.000687
0.000005
-0.000677
-0.001359
-0.001359
-0.000677
-0.000677
0.000005
0.000687
0.002051
0.004097
0.002733
0.002051
0.002051
0.002051
0.001369
0.001369
0.000687
0.000005
-0.001359
-0.002041
-0.001359
-0.003405
-0.002723
-0.003405
-0.000677
-0.001359
0.000687
0.001369
0.001369
0.002051
0.002733
0.002051
0.003415
0.004097
0.002733
0.004097
0.003415
0.000687
0.000687
0.001369
0.002733
0.001369
0.004097
0.002051
-0.001359
0.000687
0.001369
0.000687
0.002051
0.001369
0.001369
0.001369
0.001369
0.002733
0.002733
0.002051
0.002733
0.003415
0.001369
0.000687
0.000005
-0.000677
-0.000677
0.000687
0.000005
0.000687
0.000687
0.001369
0.003415
0.002733
0.002733
0.002733
0.003415
0.004097
0.001369
0.000005
0.000005
0.001369
0.000687
-0.005451
-0.019772
-0.062053
-0.110472
-0.142524
-0.142524
-0.114564
-0.079102
-0.044322
-0.025910
-0.006815
0.000687
0.003415
0.006824
0.008188
0.008870
0.010234
0.008870
0.008870
0.009552
0.010916
0.011598
0.009552
0.012280
0.010916
0.010234
0.010916
0.011598
0.009552
0.010916
0.012962
0.013644
0.016372
0.017736
0.019782
0.019782
0.023873
0.025237
0.027965
0.025919
0.023191
0.021827
0.020464
0.019782
0.020464
0.017736
0.015008
0.011598
0.008870
0.006142
0.005460
0.003415
0.003415
0.003415
0.003415
0.004097
0.005460
0.005460
0.003415
0.002733
0.000687
0.000005
-0.001359
0.000005
0.001369
0.002051
0.002733
0.001369
0.002733
0.003415
0.004779
0.006142
0.006142
0.006142
0.006142
0.008188
0.007506
0.008870
0.008188
0.008188
0.008870
0.008188
0.008188
0.008188
0.007506
0.006142
0.006142
0.006142
0.004097
0.002051
0.002051
0.000687
0.001369
0.001369
0.002051
0.002051
0.002051
0.003415
0.003415
0.002733
0.004097
0.000687
0.002733
0.000687
0.002733
0.002051
0.002733
0.002733
0.002051
0.004097
0.005460
0.003415
0.002051
0.002051
0.002051
0.002051
0.000687
-0.000677
0.000005
-0.001359
0.000005
-0.009543
-0.025228
-0.072965
-0.120702
-0.150708
-0.144570
-0.107745
-0.068191
-0.036821
-0.019772
-0.000677
0.006142
0.007506
0.008188
0.006824
0.005460
0.006142
0.005460
0.006142
0.008188
0.008870
0.009552
0.010916
0.011598
0.013644
0.015008
0.017054
0.016372
0.015690
0.018418
0.016372
0.017736
0.019100
0.017736
0.015690
0.015690
0.017736
0.019782
0.019782
0.022509
0.023873
0.025919
0.026601
0.027283
0.025919
0.023873
0.021827
0.017736
0.014326
0.010916
0.008870
0.004779
0.002733
0.000005
-0.001359
-0.003405
-0.004087
-0.006133
-0.006133
-0.004769
-0.004769
-0.005451
-0.002723
-0.002723
-0.001359
0.000005
0.002051
0.002051
0.002733
0.002733
0.003415
0.003415
0.003415
0.002051
0.001369
0.001369
0.001369
0.000005
0.000687
0.000687
0.000687
0.000005
0.000005
0.000005
0.000687
0.001369
0.002733
0.001369
0.002051
-0.000677
-0.002041
-0.002041
-0.002723
-0.004769
-0.004087
-0.002723
0.000005
-0.001359
0.000687
0.002051
0.002733
0.002733
0.002733
0.001369
0.000687
0.000687
0.000005
0.000687
0.000687
0.000005
-0.001359
-0.001359
-0.000677
-0.000677
0.000005
-0.000677
0.000687
0.000687
0.000687
0.001369
0.001369
0.002051
0.002733
0.002051
0.002051
0.002733
0.003415
0.002733
0.002051
0.000005
0.000005
-0.002723
-0.002723
-0.002723
-0.002041
-0.000677
-0.001359
-0.001359
0.000005
-0.000677
0.001369
0.002051
0.002051
0.002051
0.001369
0.001369
0.000005
-0.002041
-0.003405
-0.002041
-0.002041
-0.002041
-0.002041
-0.002041
-0.001359
-0.002041
-0.002041
0.000005
0.000687
-0.000677
0.000005
0.000005
-0.000677
-0.001359
-0.002041
-0.001359
-0.000677
-0.001359
0.000005
0.000687
0.000005
-0.001359
-0.001359
-0.002723
-0.004087
-0.004087
-0.004769
-0.004087
-0.003405
-0.003405
-0.002041
-0.002041
-0.000677
0.000005
0.000687
0.002051
0.002051
0.002733
0.003415
0.002733
0.002051
0.001369
-0.000677
0.000005
-0.001359
-0.002041
-0.003405
-0.002723
-0.002041
-0.002041
-0.000677
0.000005
-0.000677
-0.000677
-0.000677
0.000687
0.000687
0.001369
0.002733
0.000687
0.000687
0.000005
0.000687
0.000687
0.000005
0.000005
-0.000677
-0.000677
-0.000677
-0.001359
-0.001359
-0.001359
0.000687
0.000687
0.001369
0.003415
0.004779
0.003415
0.002733
0.002733
0.003415
0.003415
0.004779
0.003415
0.003415
0.002051
0.002051
0.000687
0.000687
0.000005
-0.000677
0.001369
0.002051
0.002051
0.002051
0.000687
0.000687
0.001369
0.002051
0.002051
0.002733
0.003415
0.002733
0.002733
0.003415
0.002733
0.004097
0.003415
0.002733
0.001369
-0.002041
-0.000677
-0.001359
-0.000677
0.000005
0.000005
0.001369
0.002051
0.002733
0.003415
0.004097
0.002733
0.003415
0.002051
0.002051
0.000687
0.000687
0.001369
0.001369
0.001369
0.002733
0.002733
0.001369
0.002733
0.002733
0.001369
0.000687
-0.000677
-0.000677
0.000005
0.001369
0.000687
0.000687
0.002051
0.003415
0.003415
0.003415
0.003415
0.002733
0.004779
0.003415
0.001369
-0.000677
-0.003405
-0.010907
-0.027274
-0.076375
-0.124112
-0.148662
-0.140479
-0.111154
-0.071601
-0.042277
-0.021136
-0.004769
0.001369
0.005460
0.007506
0.009552
0.008870
0.010234
0.009552
0.010234
0.008870
0.008870
0.008870
0.008870
0.009552
0.011598
0.011598
0.012280
0.012280
0.013644
0.013644
0.015008
0.014326
0.015008
0.017054
0.018418
0.019100
0.020464
0.021827
0.025237
0.025237
0.026601
0.028647
0.026601
0.026601
0.025919
0.025237
0.021145
0.019782
0.017054
0.013644
0.009552
0.008188
0.006824
0.006142
0.004779
0.004779
0.002733
0.004097
0.002051
0.000687
0.000005
-0.000677
-0.002041
-0.001359
-0.002041
-0.002041
-0.002723
0.001369
0.000687
0.002051
0.003415
0.004779
0.005460
0.004779
0.004097
0.006142
0.006142
0.007506
0.006142
0.005460
0.005460
0.004097
0.002733
0.002051
0.000687
0.001369
0.002051
0.002051
0.003415
0.004097
0.003415
0.004097
0.003415
0.002733
0.003415
0.004097
0.002733
0.003415
0.002733
0.002733
0.002733
0.001369
0.002051
0.001369
0.001369
0.000687
0.002733
0.000687
0.001369
0.000687
0.000005
0.001369
0.002051
0.003415
0.004097
0.004779
0.002051
0.001369
0.000687
0.000687
0.000687
0.001369
-0.000677
0.000005
0.000005
0.000005
0.000687
0.000687
0.002051
0.003415
0.002733
0.002733
0.002733
0.000687
0.000687
0.002051
0.001369
0.002051
0.002733
0.003415
0.002733
0.003415
0.002733
0.003415
0.003415
0.004097
0.004779
0.003415
0.000687
0.001369
-0.000677
-0.000677
0.000687
-0.000677
0.000687
-0.000677
0.000687
0.001369
0.002051
-0.006815
-0.023864
-0.072965
-0.121384
-0.149344
-0.145252
-0.113200
-0.076375
-0.043641
-0.023864
-0.004769
0.000687
0.004097
0.006824
0.006824
0.008870
0.008870
0.008870
0.010234
0.010916
0.011598
0.010916
0.009552
0.011598
0.012280
0.012280
0.012280
0.012962
0.011598
0.013644
0.014326
0.017736
0.017054
0.019782
0.023191
0.024555
0.026601
0.027965
0.030011
0.030011
0.032057
0.031375
0.032739
0.031375
0.030011
0.027965
0.025919
0.022509
0.019100
0.015008
0.011598
0.008870
0.002051
-0.000677
-0.003405
-0.000677
-0.001359
-0.002041
-0.002041
-0.002041
-0.001359
-0.001359
-0.001359
-0.000677
0.000687
0.000005
0.001369
0.002733
0.002051
0.004097
0.003415
0.003415
0.004097
0.004097
0.004779
0.004779
0.006142
0.006142
0.004779
0.004097
0.003415
0.004779
0.004097
0.003415
0.003415
0.002051
0.002733
0.002051
0.002051
0.001369
0.000687
0.000005
0.000687
0.000687
0.001369
0.002051
0.003415
0.004779
0.004097
0.004097
0.003415
0.000687
0.002733
0.002733
0.003415
0.003415
0.003415
0.003415
0.002051
0.001369
0.000005
0.001369
0.002051
0.002051
0.001369
0.002733
-0.001359
-0.014316
-0.049778
-0.095469
-0.135705
-0.148662
-0.124112
-0.088650
-0.051824
-0.032047
-0.014316
-0.002041
0.002733
0.005460
0.008188
0.008188
0.007506
0.007506
0.008870
0.010234
0.011598
0.010916
0.011598
0.014326
0.014326
0.013644
0.011598
0.011598
0.012280
0.010916
0.012962
0.014326
0.015690
0.016372
0.015690
0.017736
0.020464
0.023191
0.024555
0.024555
0.025919
0.026601
0.025919
0.025919
0.024555
0.022509
0.019782
0.017054
0.013644
0.010916
0.008188
0.006142
0.004097
0.002051
0.000005
-0.000677
-0.000677
0.000005
-0.001359
-0.002041
-0.002041
-0.003405
-0.001359
0.001369
0.002051
0.002733
0.004097
0.004779
0.004779
0.002733
0.002051
0.002051
0.000687
0.002051
0.002733
0.003415
0.004097
0.004097
0.004779
0.004779
0.003415
0.004097
0.004097
0.004097
0.004779
0.004097
0.003415
0.003415
0.002051
0.002733
0.001369
0.002733
0.002733
0.002733
0.002733
0.006142
0.004097
0.004097
0.002733
0.000005
-0.000677
-0.002041
-0.001359
-0.001359
0.000005
-0.000677
-0.000677
-0.000677
-0.000677
-0.000677
0.000687
-0.001359
0.000687
0.002051
0.001369
0.004097
0.003415
0.002051
0.002051
0.000687
0.001369
-0.004769
-0.012270
-0.041595
-0.084558
-0.125475
-0.140479
-0.123430
-0.091378
-0.055234
-0.033411
-0.015680
-0.005451
-0.000677
0.003415
0.006142
0.008188
0.009552
0.008870
0.008870
0.010234
0.011598
0.010916
0.010234
0.010916
0.010234
0.008870
0.008188
0.006824
0.008188
0.006824
0.008188
0.007506
0.007506
0.008188
0.009552
0.013644
0.017054
0.018418
0.020464
0.018418
0.020464
0.023191
0.023873
0.023191
0.022509
0.021827
0.019100
0.017736
0.013644
0.008870
0.006142
0.004779
0.001369
0.000005
0.000005
-0.002041
-0.002723
-0.003405
-0.002723
-0.002041
-0.002041
0.000005
0.000687
0.001369
0.003415
0.002733
0.004097
0.004097
0.004097
0.003415
0.002733
0.002733
0.004097
0.006142
0.006824
0.004779
0.005460
0.005460
0.008188
0.007506
0.006824
0.006142
0.005460
0.005460
0.006824
0.006824
0.006824
0.004779
0.002733
0.003415
0.003415
0.002733
0.004779
0.006142
0.006824
0.006142
0.006824
0.006142
0.004097
0.004097
0.004097
0.004779
0.004779
0.004779
0.004779
0.002733
0.001369
0.002051
0.002051
0.002051
0.003415
0.003415
0.004779
0.006824
0.006142
0.006142
0.006824
0.005460
0.005460
0.004097
0.004097
0.002733
0.002051
0.002051
0.003415
0.003415
0.002733
0.002051
0.003415
0.003415
0.003415
0.002733
0.004097
0.005460
0.005460
0.005460
0.005460
0.004779
0.005460
0.005460
0.004779
0.004097
0.003415
0.002733
-0.006133
-0.025228
-0.077738
-0.125475
-0.152072
-0.146616
-0.112518
-0.075011
-0.042959
-0.023182
-0.003405
0.003415
0.006824
0.008870
0.010234
0.012962
0.012962
0.015008
0.014326
0.015008
0.015690
0.015008
0.012962
0.012280
0.012962
0.012962
0.013644
0.012962
0.014326
0.014326
0.015690
0.015690
0.017054
0.018418
0.021145
0.022509
0.023191
0.027283
0.029329
0.029329
0.031375
0.032057
0.032057
0.031375
0.027965
0.025919
0.021827
0.019100
0.015008
0.009552
0.006142
0.002051
0.000005
-0.001359
-0.002041
-0.001359
-0.002723
-0.001359
-0.002041
-0.002723
-0.002041
-0.000677
0.000687
0.000687
0.000687
-0.000677
-0.002041
-0.002041
-0.000677
-0.000677
0.000005
0.002733
0.005460
0.005460
0.005460
0.004097
0.003415
0.004097
0.003415
0.004097
0.003415
0.002733
0.002733
0.000005
-0.000677
-0.001359
-0.003405
-0.001359
0.000005
-0.001359
-0.001359
0.000005
0.000687
0.002733
0.003415
0.003415
0.002733
0.002733
0.002733
0.000005
-0.002041
-0.002041
-0.001359
-0.002723
0.000005
-0.000677
-0.002041
-0.000677
-0.002723
-0.003405
-0.002041
-0.001359
-0.003405
-0.010225
-0.031365
-0.080466
-0.126157
-0.147980
-0.139115
-0.103653
-0.064781
-0.038867
-0.019772
-0.004087
0.001369
0.002051
0.004097
0.005460
0.007506
0.008870
0.009552
0.011598
0.012962
0.012962
0.012280
0.010234
0.010916
0.010916
0.010916
0.012280
0.012962
0.015690
0.015008
0.015690
0.016372
0.017054
0.019100
0.020464
0.022509
0.023191
0.025237
0.028647
0.030011
0.030693
0.030693
0.027965
0.026601
0.025237
0.023191
0.019782
0.015008
0.010916
0.008188
0.006142
0.006142
0.004097
0.003415
0.003415
0.003415
0.003415
0.002733
0.000005
-0.000677
-0.000677
-0.002041
-0.000677
0.000005
-0.000677
0.001369
0.002051
0.003415
0.004779
0.005460
0.005460
0.004779
0.006824
0.008188
0.008188
0.008188
0.008870
0.004779
0.004097
0.003415
0.002051
0.002051
0.001369
0.000687
0.001369
0.002733
0.003415
0.004779
0.005460
0.005460
0.006142
0.006824
0.005460
0.001369
-0.001359
-0.000677
-0.001359
-0.002041
-0.001359
0.000005
-0.001359
-0.001359
-0.002041
-0.002041
-0.001359
-0.000677
-0.002041
-0.000677
0.000005
-0.000677
-0.003405
-0.003405
-0.002723
-0.002041
-0.002041
-0.012952
-0.034093
-0.081148
-0.122066
-0.145934
-0.134341
-0.102971
-0.062053
-0.036821
-0.019090
-0.004769
-0.001359
0.000687
0.004097
0.005460
0.006824
0.007506
0.007506
0.008870
0.009552
0.010234
0.011598
0.012280
0.011598
0.012280
0.013644
0.013644
0.012962
0.012962
0.012280
0.014326
0.013644
0.015008
0.017054
0.018418
0.019782
0.021145
0.021827
0.021145
0.023191
0.022509
0.024555
0.025919
0.024555
0.023191
0.021145
0.018418
0.015690
0.012280
0.009552
0.005460
0.002051
0.000687
0.000005
-0.001359
0.000005
-0.000677
-0.001359
-0.001359
0.000687
0.001369
0.002051
0.002051
0.003415
0.004779
0.005460
0.006142
0.004779
0.004097
0.004097
0.004097
0.004097
0.003415
0.003415
0.002733
0.002733
0.002733
0.002733
0.002733
0.002733
0.003415
0.005460
0.004097
0.004779
0.003415
0.003415
0.003415
0.002051
0.002733
0.001369
0.001369
0.000687
0.000005
-0.000677
0.000005
0.000687
-0.001359
-0.002041
-0.000677
0.000005
-0.002723
-0.002041
-0.000677
0.000687
0.002051
0.002051
0.002051
0.001369
0.002051
0.002051
0.002051
0.000687
0.000005
0.001369
0.001369
0.001369
0.001369
-0.004087
-0.014998
-0.048414
-0.094787
-0.135023
-0.148662
-0.124794
-0.089332
-0.051142
-0.029319
-0.010225
0.002051
0.006824
0.010234
0.012962
0.010916
0.012280
0.010234
0.007506
0.008188
0.009552
0.010916
0.010916
0.010234
0.010916
0.012280
0.012962
0.012962
0.015008
0.014326
0.015690
0.017054
0.017054
0.018418
0.019100
0.021145
0.023191
0.027965
0.029329
0.031375
0.034103
0.035467
0.034785
0.031375
0.029329
0.025919
0.021827
0.017736
0.014326
0.009552
0.006824
0.004779
0.004779
0.003415
0.002733
0.003415
0.002051
0.003415
0.002051
0.001369
0.002733
0.002051
0.003415
0.002051
0.000687
0.000005
0.000005
-0.000677
-0.000677
-0.000677
-0.000677
0.001369
0.002733
0.002733
0.004097
0.004779
0.005460
0.005460
0.006142
0.006142
0.006142
0.005460
0.004097
0.002733
0.002051
0.001369
0.001369
0.000005
0.000687
0.000687
-0.000677
0.000687
0.000687
-0.000677
0.002051
0.002733
0.001369
0.000687
0.001369
0.001369
0.000005
0.000005
-0.002041
-0.004769
-0.004087
-0.004087
-0.003405
-0.004769
-0.001359
-0.002723
-0.001359
-0.002723
-0.002041
-0.000677
0.000005
-0.000677
-0.000677
-0.004087
-0.014998
-0.046368
-0.096151
-0.135705
-0.150708
-0.129567
-0.093423
-0.055916
-0.032729
-0.011588
0.001369
0.002733
0.002733
0.004097
0.004097
0.005460
0.005460
0.004779
0.005460
0.004779
0.004097
0.004097
0.006142
0.006824
0.008188
0.008188
0.009552
0.010234
0.012280
0.012280
0.012280
0.014326
0.015008
0.018418
0.018418
0.022509
0.023873
0.024555
0.023873
0.024555
0.027283
0.026601
0.028647
0.027283
0.025237
0.019782
0.014326
0.008870
0.005460
0.002733
0.000005
0.000005
-0.001359
-0.000677
0.000687
-0.000677
-0.001359
-0.000677
0.000005
0.000005
0.001369
0.001369
0.000687
0.002051
0.002051
0.002733
0.002051
0.002733
0.002051
0.003415
0.003415
0.004779
0.006142
0.005460
0.004097
0.004779
0.002733
0.002733
0.002733
0.004097
0.002051
0.004779
0.004097
0.004779
0.003415
0.003415
0.002051
0.004779
0.004097
0.004779
0.004779
0.006142
0.004779
0.004779
0.002733
0.002051
0.001369
0.001369
0.000687
0.002051
0.004097
0.004097
0.004097
0.004779
0.005460
0.005460
0.004779
0.003415
0.003415
0.004779
0.004779
0.002051
0.000005
-0.002041
-0.001359
-0.001359
0.000005
0.000005
0.001369
0.000687
-0.000677
0.000687
0.002733
0.003415
0.004097
0.005460
0.007506
0.004779
0.004779
0.003415
0.004097
0.004097
0.002051
0.002051
0.003415
0.004097
0.002733
0.002051
0.002733
0.002733
0.002733
0.002051
0.002733
0.002733
0.004097
0.003415
0.002051
0.004779
0.006142
0.005460
0.006142
0.005460
0.004779
0.002051
-0.008861
-0.038185
-0.094787
-0.140479
-0.162301
-0.141161
-0.102289
-0.063417
-0.034775
-0.013634
0.002051
0.006824
0.008188
0.009552
0.010916
0.012280
0.014326
0.012280
0.011598
0.011598
0.012280
0.012280
0.012962
0.013644
0.012962
0.012962
0.013644
0.014326
0.014326
0.015008
0.017736
0.018418
0.019782
0.021145
0.022509
0.025237
0.027283
0.027965
0.029329
0.030011
0.030011
0.030011
0.029329
0.027283
0.025919
0.021145
0.017736
0.014326
0.012280
0.009552
0.006824
0.005460
0.002733
0.002051
0.000687
0.000005
-0.002723
-0.002723
-0.002041
-0.002723
-0.002723
-0.002041
-0.001359
-0.001359
0.000687
0.002733
0.003415
0.004097
0.004779
0.006824
0.006824
0.007506
0.010234
0.010234
0.009552
0.008870
0.008188
0.008188
0.007506
0.004779
0.003415
0.002733
0.001369
0.000005
-0.001359
0.000687
0.001369
0.001369
0.002733
0.003415
0.005460
0.004097
0.004779
0.004779
0.005460
0.005460
0.006142
0.006142
0.005460
0.007506
0.006142
0.004779
0.002051
0.000687
-0.000677
0.000005
-0.001359
-0.001359
0.000687
0.000687
0.000005
0.001369
0.002733
0.002733
0.003415
0.002733
0.002733
0.002733
0.001369
0.001369
0.002733
0.001369
0.001369
0.001369
0.002051
0.001369
0.000687
0.000005
-0.002041
-0.000677
-0.000677
0.000687
0.001369
0.000005
-0.012270
-0.034093
-0.083194
-0.130249
-0.154118
-0.145934
-0.110472
-0.073647
-0.042277
-0.022500
-0.005451
0.002051
0.004097
0.006142
0.006824
0.006824
0.006142
0.007506
0.007506
0.008188
0.009552
0.008188
0.008870
0.011598
0.012280
0.014326
0.015690
0.015690
0.015690
0.013644
0.014326
0.015008
0.015008
0.013644
0.014326
0.015008
0.017054
0.020464
0.021145
0.022509
0.022509
0.023191
0.025237
0.024555
0.023873
0.022509
0.020464
0.017054
0.012962
0.010234
0.005460
0.004097
0.002733
0.000005
-0.002041
-0.003405
-0.005451
-0.004087
-0.000677
-0.001359
0.000005
0.002733
0.003415
0.004097
0.004097
0.005460
0.002733
0.005460
0.007506
0.005460
0.005460
0.004779
0.004779
0.004097
0.003415
0.002733
0.002051
0.002733
0.004779
0.004097
0.004779
0.006824
0.005460
0.004097
0.002733
0.003415
0.003415
0.003415
0.002733
0.000687
0.002051
0.000687
0.000005
-0.001359
-0.000677
0.000005
0.000005
0.001369
0.001369
0.002051
0.001369
-0.000677
-0.000677
-0.001359
-0.001359
-0.000677
-0.000677
0.000005
0.000687
-0.000677
-0.000677
0.000005
-0.000677
0.000687
0.001369
0.000687
-0.001359
-0.002041
-0.002041
-0.001359
0.000005
-0.000677
-0.000677
0.000005
0.000687
0.002733
0.002733
0.002733
0.000687
0.002733
0.001369
0.003415
0.001369
0.002051
0.001369
0.000687
0.002733
0.002051
0.000005
-0.008861
-0.023182
-0.070919
-0.116610
-0.143888
-0.137751
-0.105699
-0.066145
-0.037503
-0.019090
-0.002041
0.004097
0.003415
0.006142
0.007506
0.008870
0.010916
0.010916
0.010916
0.011598
0.012280
0.012280
0.012962
0.012962
0.013644
0.013644
0.015008
0.014326
0.014326
0.015008
0.013644
0.015690
0.015008
0.016372
0.017054
0.019100
0.021145
0.023873
0.025919
0.026601
0.029329
0.030011
0.029329
0.027283
0.026601
0.021827
0.017736
0.015690
0.012962
0.009552
0.006142
0.004779
0.005460
0.002733
0.000005
-0.002041
-0.003405
-0.004087
-0.004087
-0.004769
-0.005451
-0.004769
-0.002723
-0.002041
-0.000677
-0.001359
0.000687
0.000005
0.000687
0.001369
0.002051
0.002733
0.004097
0.005460
0.004779
0.005460
0.004779
0.003415
0.002733
0.001369
0.001369
0.000005
0.000687
0.003415
0.003415
0.001369
0.002733
0.002733
0.002051
0.003415
0.002051
0.002733
0.001369
0.002733
0.004097
0.004097
0.003415
0.002733
0.002051
0.002051
-0.000677
-0.002041
-0.002041
-0.000677
-0.001359
-0.000677
0.001369
0.000687
0.000687
0.001369
0.002051
0.000687
0.002051
0.002733
0.002733
0.000687
0.000005
-0.000677
-0.000677
-0.000677
-0.000677
0.000005
-0.001359
0.000005
0.000005
0.000687
0.001369
0.003415
0.002733
0.002733
0.001369
0.001369
0.000687
0.002051
0.002051
0.001369
0.001369
0.001369
0.002051
0.002733
0.003415
0.002733
0.003415
0.002733
0.002733
0.003415
0.004779
0.004779
0.003415
0.000687
0.001369
-0.000677
-0.000677
0.000005
-0.009543
-0.036139
-0.091378
-0.137751
-0.160937
-0.145934
-0.109790
-0.068191
-0.037503
-0.017044
-0.002723
0.005460
0.007506
0.011598
0.011598
0.010916
0.012280
0.012280
0.014326
0.014326
0.013644
0.011598
0.012280
0.012280
0.012962
0.012280
0.013644
0.015008
0.017736
0.017054
0.016372
0.014326
0.015008
0.015690
0.018418
0.019782
0.022509
0.023873
0.025919
0.027283
0.026601
0.026601
0.028647
0.027283
0.025919
0.024555
0.021827
0.018418
0.015690
0.009552
0.006142
0.003415
0.001369
-0.000677
-0.002041
-0.002723
-0.004087
-0.004087
-0.002723
-0.002723
-0.002041
-0.000677
0.000687
0.000005
0.003415
0.003415
0.006142
0.003415
0.000687
0.002051
0.000005
0.000687
0.001369
0.002733
0.001369
0.003415
0.004779
0.004097
0.004097
0.005460
0.005460
0.005460
0.005460
0.004097
0.003415
0.004779
0.004097
0.000687
0.000005
0.000005
-0.000677
0.000005
-0.000677
-0.000677
0.000005
-0.000677
0.000687
0.000005
0.000687
0.001369
0.001369
0.002733
0.002733
0.002051
-0.001359
-0.001359
-0.001359
0.000005
0.000005
0.000687
0.002733
0.002733
0.003415
0.002051
0.001369
0.000687
0.001369
0.001369
0.000687
-0.000677
-0.000677
-0.001359
-0.002041
-0.002723
-0.001359
-0.000677
-0.002041
0.000005
0.001369
0.002733
0.002051
0.003415
0.002733
0.002051
0.000687
0.000687
0.000005
-0.002041
-0.001359
0.000005
0.000005
0.000005
0.000687
0.001369
0.001369
0.001369
0.001369
0.000005
0.000005
0.000687
0.002051
0.001369
0.002733
0.002733
0.002733
0.002051
0.000005
0.000687
0.001369
0.001369
0.001369
0.000687
0.000005
0.001369
0.001369
0.001369
0.002051
0.003415
0.002733
0.002733
0.003415
0.004097
0.002051
0.002051
-0.000677
-0.010907
-0.042959
-0.092060
-0.135023
-0.150708
-0.130249
-0.096151
-0.057962
-0.032729
-0.012270
0.000005
0.005460
0.006824
0.007506
0.008870
0.009552
0.009552
0.009552
0.010234
0.010234
0.012280
0.013644
0.014326
0.014326
0.014326
0.014326
0.015008
0.015008
0.015690
0.015008
0.015008
0.014326
0.015690
0.016372
0.016372
0.017736
0.017736
0.019100
0.021145
0.025237
0.026601
0.027283
0.027283
0.025919
0.024555
0.023191
0.020464
0.018418
0.015690
0.012962
0.008870
0.007506
0.006142
0.005460
0.002733
0.002051
0.000687
0.001369
-0.000677
-0.001359
-0.000677
-0.000677
0.000687
0.000687
0.002051
0.003415
0.004097
0.003415
0.004779
0.004779
0.004779
0.006142
0.003415
0.003415
0.002051
0.002051
0.002051
0.002733
0.002733
0.002733
0.003415
0.001369
0.000687
0.003415
0.002733
0.003415
0.004097
0.004779
0.004097
0.002051
0.002051
0.002733
0.000687
0.001369
0.000687
0.002051
0.001369
0.002051
0.003415
0.001369
0.000687
0.001369
0.001369
0.000687
0.000687
0.001369
0.000687
0.000005
-0.002041
-0.002041
-0.001359
-0.001359
0.000687
-0.002723
-0.014316
-0.047050
-0.096151
-0.135023
-0.150708
-0.127521
-0.091378
-0.054552
-0.029319
-0.008861
0.001369
0.003415
0.004779
0.006142
0.007506
0.008188
0.008870
0.008870
0.010234
0.011598
0.011598
0.014326
0.012962
0.012962
0.012962
0.011598
0.011598
0.012280
0.012280
0.013644
0.015008
0.016372
0.015690
0.017054
0.017054
0.020464
0.021145
0.023873
0.025919
0.027965
0.027965
0.029329
0.030011
0.027965
0.027283
0.024555
0.021145
0.017054
0.012280
0.008870
0.008188
0.004779
0.003415
0.004779
0.003415
0.003415
0.000687
0.000687
-0.000677
0.000005
0.002051
0.003415
0.004097
0.004097
0.004779
0.005460
0.005460
0.006824
0.006824
0.007506
0.006142
0.007506
0.004779
0.005460
0.003415
0.002733
0.002733
0.002051
0.002051
0.004097
0.004097
0.005460
0.006142
0.004097
0.004779
0.005460
0.004779
0.006142
0.007506
0.005460
0.002051
0.002051
0.002051
0.002733
0.001369
0.003415
0.002051
0.003415
0.003415
0.003415
0.003415
0.003415
0.002733
0.001369
0.001369
0.002051
-0.000677
0.000687
0.000687
0.002051
0.002051
0.002051
0.002051
0.002051
0.003415
0.002733
0.002733
0.003415
0.003415
0.004097
0.004097
0.002051
-0.000677
-0.000677
0.001369
0.000687
0.003415
0.000005
-0.010907
-0.045686
-0.098879
-0.139797
-0.153436
-0.127521
-0.089332
-0.051824
-0.028637
-0.008179
0.004097
0.006824
0.008188
0.008188
0.009552
0.008188
0.008870
0.008870
0.009552
0.009552
0.010916
0.010234
0.012280
0.011598
0.013644
0.015008
0.015690
0.015008
0.015008
0.017054
0.020464
0.022509
0.020464
0.020464
0.020464
0.022509
0.025237
0.026601
0.027965
0.027965
0.028647
0.027283
0.026601
0.023873
0.021145
0.018418
0.013644
0.009552
0.006824
0.004097
0.002733
-0.000677
-0.002723
-0.004087
-0.004769
-0.003405
-0.002041
-0.002723
-0.001359
-0.001359
0.000005
0.000687
0.002051
0.001369
0.003415
0.004097
0.004097
0.002051
0.001369
0.002051
0.004097
0.002051
0.002051
0.002733
0.002051
0.002733
0.003415
0.004779
0.004097
0.004779
0.005460
0.007506
0.004779
0.002733
0.000005
-0.000677
0.000005
-0.000677
0.000005
-0.001359
0.001369
0.001369
0.003415
0.003415
0.003415
0.002051
0.004779
0.003415
0.000687
-0.001359
0.000005
0.000687
-0.000677
0.000005
0.000005
0.000005
-0.001359
0.000005
-0.001359
0.000005
0.000005
0.000687
0.000687
0.001369
0.000687
0.000005
-0.001359
-0.002041
-0.002041
-0.002723
-0.003405
-0.003405
-0.000677
-0.002041
-0.001359
-0.000677
0.000005
-0.001359
-0.003405
-0.002723
-0.002723
-0.001359
0.002733
0.002733
0.002733
0.002733
0.002733
0.002733
0.002733
0.000687
-0.000677
0.001369
0.000005
0.000005
-0.000677
-0.001359
0.002051
0.001369
0.000687
0.002051
0.002733
0.004779
0.000005
-0.010907
-0.047732
-0.097515
-0.136387
-0.149344
-0.127521
-0.090696
-0.055234
-0.033411
-0.014316
0.000005
0.004097
0.006142
0.008870
0.009552
0.010916
0.012280
0.012962
0.011598
0.010916
0.010234
0.010916
0.009552
0.010916
0.010234
0.011598
0.013644
0.012280
0.012962
0.012962
0.012962
0.015008
0.016372
0.017054
0.017736
0.017736
0.019100
0.021827
0.023191
0.023191
0.024555
0.025919
0.025237
0.024555
0.023873
0.020464
0.018418
0.012962
0.009552
0.007506
0.004779
0.002051
0.000005
-0.000677
-0.002723
-0.001359
0.000005
-0.000677
0.000687
-0.000677
0.000005
0.000005
0.001369
-0.000677
-0.000677
0.000005
0.000005
0.001369
0.001369
0.002733
0.003415
0.004097
0.002733
0.004097
0.006824
0.006824
0.008188
0.006142
0.006142
0.005460
0.004779
0.004097
0.003415
0.003415
0.003415
0.002733
0.002051
0.002733
0.002051
0.002733
0.003415
0.002733
0.002051
0.002051
0.001369
0.001369
0.002051
0.003415
0.003415
0.003415
0.002733
0.001369
0.000687
-0.000677
-0.001359
0.000005
-0.002041
-0.002041
-0.004769
-0.002723
-0.002041
-0.002723
0.000005
-0.001359
0.000005
0.000687
0.000687
0.001369
0.000687
0.001369
0.001369
0.002051
0.001369
-0.001359
-0.001359
-0.002723
-0.002723
-0.002723
-0.003405
-0.000677
0.000005
-0.000677
-0.001359
-0.001359
0.000005
0.000687
0.002051
0.002051
0.002051
0.002733
0.002051
0.002051
0.000005
0.000687
-0.001359
-0.000677
-0.001359
-0.002041
0.000005
-0.001359
-0.000677
0.000687
0.000005
0.002051
0.002733
0.000005
0.000687
0.000005
0.000687
0.002733
0.002051
-0.006133
-0.025910
-0.079102
-0.128885
-0.158891
-0.152072
-0.118656
-0.079102
-0.046368
-0.024546
-0.006815
0.001369
0.004097
0.007506
0.008870
0.010234
0.012280
0.012280
0.012280
0.011598
0.010916
0.010234
0.012280
0.011598
0.009552
0.008188
0.008188
0.009552
0.008188
0.009552
0.010916
0.012280
0.015008
0.016372
0.019782
0.020464
0.022509
0.024555
0.027965
0.027965
0.027283
0.026601
0.027283
0.024555
0.023873
0.021145
0.018418
0.016372
0.010916
0.007506
0.005460
0.002051
0.001369
0.000005
-0.000677
-0.000677
-0.001359
-0.000677
-0.001359
-0.003405
-0.002723
-0.002723
-0.002723
-0.003405
-0.000677
0.000687
0.000687
-0.000677
0.001369
-0.000677
0.001369
0.001369
0.002051
0.001369
0.001369
0.000005
0.000687
0.000687
0.000687
0.000005
0.001369
0.001369
0.001369
0.001369
0.001369
0.002051
0.003415
0.004097
0.004097
0.002051
0.000687
0.000005
-0.001359
-0.000677
-0.001359
0.000005
0.000005
0.000005
-0.000677
-0.002041
-0.001359
-0.000677
0.000005
0.001369
0.000005
-0.001359
0.000005
-0.000677
-0.001359
-0.000677
0.000687
0.000687
0.002051
0.002733
0.003415
0.001369
0.001369
0.001369
0.001369
0.002051
0.002051
0.000005
0.000687
-0.000677
-0.001359
0.000687
-0.000677
-0.001359
0.000005
0.000687
0.002733
0.006142
0.004779
0.005460
0.006824
0.004097
0.004097
0.003415
0.003415
0.004779
0.004779
0.003415
0.003415
0.004097
0.004097
0.004779
0.004097
0.003415
0.003415
0.002733
0.003415
0.002051
0.004097
0.004779
0.003415
0.002051
0.000687
0.001369
0.004097
0.004779
0.004097
0.006142
0.004097
0.003415
0.002051
0.002051
0.000687
0.000005
0.000687
0.002051
0.001369
0.002733
0.002733
0.003415
0.005460
0.004779
0.001369
0.001369
0.001369
0.001369
0.002051
0.000687
-0.001359
-0.000677
-0.001359
-0.001359
-0.001359
-0.001359
0.000005
0.000005
0.002051
0.000687
0.003415
0.003415
0.004097
0.002733
0.001369
0.000005
-0.002723
-0.002723
-0.002041
-0.002041
-0.002723
-0.001359
-0.001359
-0.003405
-0.002723
0.000005
0.001369
0.001369
0.002733
0.004779
0.005460
0.004779
0.004097
0.004779
0.004097
-0.003405
-0.019772
-0.065463
-0.115246
-0.148662
-0.152072
-0.122066
-0.086604
-0.050460
-0.027955
-0.007497
-0.000677
0.004779
0.008870
0.010916
0.011598
0.012962
0.012962
0.014326
0.015690
0.014326
0.010916
0.008870
0.009552
0.008870
0.009552
0.012280
0.012962
0.013644
0.012280
0.014326
0.015008
0.015008
0.018418
0.020464
0.020464
0.020464
0.023191
0.021145
0.022509
0.021145
0.021827
0.023191
0.023191
0.023191
0.021145
0.019782
0.018418
0.016372
0.013644
0.010234
0.008188
0.006824
0.005460
0.002051
0.002051
0.000005
-0.002041
-0.002723
-0.002041
0.000687
0.000005
0.002051
0.001369
0.002051
0.002051
0.000687
-0.002041
-0.001359
0.000005
0.000687
0.001369
0.000687
0.000005
0.002051
0.002733
0.003415
0.002733
0.004097
0.005460
0.005460
0.006824
0.008188
0.008870
0.008188
0.006824
0.006142
0.004779
0.001369
-0.000677
-0.001359
-0.001359
-0.001359
-0.003405
-0.000677
-0.000677
0.000005
0.000687
0.002733
0.002733
0.004097
0.004097
0.004779
0.003415
0.003415
0.001369
0.003415
0.002733
0.000687
0.000687
0.000687
0.000687
0.001369
0.000687
0.000005
0.000005
-0.000677
-0.009543
-0.023182
-0.064099
-0.110472
-0.143206
-0.141161
-0.110472
-0.072283
-0.041595
-0.021818
-0.001359
0.007506
0.008870
0.009552
0.008188
0.008870
0.009552
0.008870
0.008870
0.009552
0.008870
0.008870
0.007506
0.008870
0.008870
0.011598
0.011598
0.012280
0.012962
0.015008
0.015690
0.017054
0.017054
0.018418
0.019782
0.018418
0.020464
0.021827
0.024555
0.025919
0.026601
0.027965
0.027965
0.026601
0.025237
0.022509
0.019100
0.017736
0.015690
0.012280
0.008188
0.006824
0.003415
0.003415
0.002051
0.001369
0.000687
-0.001359
-0.000677
-0.000677
-0.000677
-0.002723
-0.001359
-0.002041
-0.000677
0.000005
0.000687
0.002051
0.002733
0.001369
0.004779
0.004097
0.005460
0.004779
0.006824
0.008188
0.006824
0.005460
0.005460
0.004779
0.003415
0.001369
0.000005
-0.000677
0.000687
0.002051
0.003415
0.002733
0.003415
0.003415
0.003415
0.004779
0.004779
0.003415
0.004097
0.003415
0.002051
0.000687
0.000005
0.000005
-0.000677
-0.002723
-0.002723
-0.002723
-0.001359
0.002733
0.003415
0.004779
0.004779
0.004097
0.004097
0.004097
0.004779
0.004097
0.004097
0.005460
0.004097
0.001369
0.001369
0.000687
-0.002041
-0.004087
-0.002041
-0.002041
-0.001359
-0.001359
-0.002041
0.000005
0.000005
0.000687
0.000687
0.000687
-0.008179
-0.029319
-0.081148
-0.128885
-0.153436
-0.143888
-0.110472
-0.072965
-0.041595
-0.021818
-0.004087
0.004097
0.004779
0.007506
0.009552
0.010916
0.010916
0.009552
0.010916
0.010916
0.012280
0.011598
0.012962
0.015008
0.014326
0.015008
0.015690
0.015690
0.015690
0.015690
0.015008
0.017054
0.019782
0.020464
0.019100
0.020464
0.023873
0.025237
0.027283
0.027965
0.029329
0.029329
0.028647
0.028647
0.028647
0.025919
0.023191
0.019100
0.012962
0.008870
0.006824
0.005460
0.003415
0.000687
-0.001359
-0.001359
-0.004087
-0.001359
-0.002723
-0.002041
-0.001359
-0.001359
-0.001359
0.000687
0.001369
0.000687
0.001369
0.000005
0.000687
0.001369
0.002733
0.002051
0.002733
0.002051
0.004779
0.004779
0.004097
0.004097
0.002051
0.001369
0.002051
0.001369
0.003415
0.004779
0.003415
0.003415
0.002051
0.000687
0.002733
-0.001359
-0.001359
0.000005
0.000005
0.001369
0.002051
0.006142
0.006142
0.006142
0.006824
0.006824
0.005460
0.003415
0.002051
0.001369
0.000687
-0.002041
-0.002041
-0.002723
-0.003405
-0.004769
-0.004769
-0.006133
-0.004087
-0.002041
-0.000677
0.000005
0.001369
0.002733
0.002733
0.002733
0.003415
0.002733
0.002051
0.001369
0.001369
0.001369
0.001369
0.000005
-0.000677
-0.001359
-0.001359
-0.001359
-0.001359
-0.002723
-0.002041
-0.001359
0.002051
0.003415
0.004779
0.004779
0.004779
0.006824
0.006142
-0.003405
-0.023182
-0.070237
-0.115928
-0.141161
-0.132295
-0.103653
-0.065463
-0.038185
-0.020454
-0.002723
0.002733
0.005460
0.007506
0.008870
0.010234
0.011598
0.011598
0.010916
0.010916
0.011598
0.010234
0.010916
0.011598
0.011598
0.010916
0.012280
0.011598
0.011598
0.011598
0.008870
0.010234
0.010916
0.010234
0.012962
0.015690
0.018418
0.021145
0.022509
0.023191
0.024555
0.024555
0.024555
0.024555
0.023873
0.022509
0.018418
0.015690
0.012962
0.008870
0.008188
0.005460
0.005460
0.004779
0.004097
0.001369
0.000005
0.000005
0.000005
-0.001359
0.000005
0.000005
0.000005
-0.000677
0.000005
0.000687
0.001369
0.002733
0.002733
0.001369
0.003415
0.004779
0.005460
0.006824
0.007506
0.006142
0.004779
0.005460
0.006824
0.005460
0.004779
0.005460
0.004779
0.005460
0.006142
0.005460
0.006142
0.006142
0.004779
0.004097
0.003415
0.004097
0.002733
0.003415
0.004097
0.003415
0.003415
0.002733
0.003415
0.003415
0.004779
0.003415
0.004097
0.004097
0.003415
0.004097
0.002051
0.002051
0.002733
0.003415
0.004097
0.004097
0.003415
0.003415
0.003415
0.004097
0.005460
0.004779
0.004779
0.006142
0.004097
0.003415
0.003415
0.002733
0.002733
0.003415
0.003415
0.002733
0.004097
0.004779
0.004779
0.004097
0.003415
0.004097
0.001369
-0.008179
-0.036821
-0.092060
-0.135705
-0.155482
-0.133659
-0.097515
-0.059326
-0.034775
-0.014998
-0.000677
0.003415
0.005460
0.007506
0.009552
0.008188
0.010234
0.012962
0.012962
0.012280
0.015690
0.015690
0.016372
0.015008
0.014326
0.014326
0.015008
0.015008
0.015008
0.012280
0.012280
0.011598
0.012962
0.014326
0.017054
0.019782
0.021145
0.024555
0.027283
0.027283
0.027965
0.027965
0.028647
0.030011
0.027965
0.026601
0.020464
0.017054
0.015008
0.009552
0.006824
0.004097
0.000005
-0.002723
-0.005451
-0.004769
-0.004769
-0.008861
-0.007497
-0.006815
-0.006815
-0.006133
-0.002723
-0.001359
0.000005
0.001369
0.002051
0.002051
0.002733
0.001369
0.002733
0.002733
0.002733
0.000005
0.000005
0.000687
0.001369
0.000005
0.000005
0.001369
0.000687
0.002733
0.003415
0.002733
0.003415
0.003415
0.004097
0.004779
0.004097
0.002051
0.000005
-0.000677
-0.002723
-0.000677
-0.001359
-0.001359
-0.002723
-0.002041
-0.001359
