0.022907
0.003874
0.007681
0.003874
0.000068
0.003874
0.015294
0.022907
0.022907
0.038133
0.026713
0.053358
0.133294
0.220843
0.243682
0.175165
0.087617
-0.079868
-0.163610
-0.087481
-0.095094
-0.117932
-0.072255
-0.018964
-0.007545
0.003874
0.000068
-0.003739
0.000068
0.003874
0.015294
0.003874
0.015294
0.007681
0.003874
0.022907
0.011487
0.007681
0.007681
0.000068
-0.007545
0.000068
0.003874
0.003874
0.007681
0.007681
0.007681
0.019100
0.022907
0.034326
0.049552
0.057165
0.060971
0.072391
0.068584
0.045745
0.045745
0.049552
0.053358
0.041939
0.034326
0.022907
0.030520
0.022907
0.022907
0.011487
0.011487
0.007681
0.011487
0.019100
0.015294
0.015294
0.015294
0.019100
0.015294
0.015294
0.019100
0.034326
0.038133
0.026713
0.068584
0.163746
0.209423
0.167552
0.041939
-0.110320
-0.277804
-0.194062
-0.110320
-0.121739
-0.057029
-0.007545
-0.007545
-0.003739
0.007681
0.000068
-0.003739
0.007681
-0.011351
-0.003739
-0.018964
-0.018964
-0.018964
-0.015158
-0.007545
-0.007545
0.000068
-0.007545
-0.007545
-0.011351
-0.003739
-0.015158
-0.003739
-0.007545
-0.007545
0.003874
-0.003739
-0.011351
-0.015158
0.007681
0.019100
0.015294
0.022907
0.011487
0.007681
0.007681
-0.003739
0.000068
0.011487
-0.007545
-0.003739
-0.018964
-0.015158
-0.022771
-0.007545
-0.011351
-0.007545
-0.011351
-0.007545
-0.003739
-0.015158
-0.018964
-0.011351
-0.003739
0.000068
0.011487
-0.011351
-0.022771
-0.018964
-0.026577
-0.026577
-0.034190
-0.026577
-0.030384
0.000068
0.095229
0.201810
0.205617
0.171359
-0.018964
-0.281610
-0.300643
-0.163610
-0.155997
-0.133158
-0.068448
-0.030384
-0.037997
-0.037997
-0.037997
-0.030384
-0.022771
-0.022771
-0.003739
0.000068
0.003874
0.000068
0.003874
0.026713
0.007681
0.011487
0.003874
-0.011351
-0.018964
-0.022771
-0.022771
-0.026577
-0.022771
-0.030384
-0.030384
-0.022771
-0.007545
-0.007545
0.007681
0.015294
0.034326
0.034326
0.026713
0.007681
0.000068
-0.007545
-0.011351
-0.007545
-0.007545
-0.007545
-0.007545
-0.015158
-0.015158
-0.015158
-0.007545
-0.018964
0.000068
0.007681
0.003874
-0.003739
-0.003739
-0.003739
-0.018964
-0.015158
-0.007545
-0.003739
-0.015158
-0.003739
0.000068
-0.022771
-0.022771
-0.018964
-0.018964
-0.034190
-0.022771
-0.041803
-0.037997
-0.030384
-0.026577
-0.034190
-0.022771
-0.022771
-0.018964
-0.018964
-0.011351
-0.007545
-0.011351
-0.015158
-0.018964
-0.007545
-0.026577
-0.030384
-0.037997
-0.034190
-0.018964
-0.022771
-0.022771
-0.011351
-0.003739
-0.003739
-0.011351
-0.003739
0.015294
0.015294
0.000068
0.019100
0.011487
0.007681
0.019100
0.015294
0.038133
0.091423
0.194197
0.258907
0.220843
0.159939
-0.022771
-0.209288
-0.163610
-0.102707
-0.121739
-0.076061
-0.026577
-0.003739
0.011487
0.003874
0.011487
0.022907
0.022907
0.026713
0.038133
0.030520
0.026713
0.034326
0.026713
0.019100
0.003874
0.003874
-0.011351
0.000068
-0.011351
-0.018964
0.000068
0.003874
0.007681
0.030520
0.026713
0.034326
0.049552
0.049552
0.057165
0.053358
0.064778
0.057165
0.045745
0.022907
0.003874
0.011487
-0.003739
-0.022771
-0.015158
0.003874
0.007681
0.007681
0.034326
0.030520
0.034326
0.034326
0.034326
0.026713
0.030520
0.022907
0.019100
0.015294
0.019100
0.019100
0.026713
0.030520
0.022907
0.022907
0.019100
0.019100
0.019100
0.034326
0.030520
0.026713
0.038133
0.034326
0.019100
0.011487
0.007681
0.007681
0.060971
0.156133
0.217036
0.186585
0.133294
-0.041803
-0.300643
-0.266384
-0.140771
-0.136965
-0.125545
-0.045610
-0.007545
0.000068
0.011487
0.007681
0.000068
0.003874
-0.003739
0.000068
0.003874
0.015294
-0.003739
0.015294
0.022907
0.019100
0.015294
0.015294
0.007681
0.015294
0.011487
0.011487
0.019100
0.019100
0.030520
0.038133
0.026713
0.041939
0.041939
0.038133
0.041939
0.038133
0.030520
0.030520
0.034326
0.015294
0.003874
0.000068
-0.011351
-0.011351
0.003874
0.011487
0.015294
0.007681
0.011487
0.011487
0.003874
0.003874
0.000068
-0.003739
0.000068
-0.003739
-0.011351
-0.011351
-0.015158
-0.011351
-0.015158
-0.003739
0.003874
0.019100
0.019100
0.015294
0.007681
0.011487
0.000068
-0.003739
-0.015158
-0.018964
-0.022771
-0.015158
-0.034190
-0.041803
-0.037997
-0.037997
-0.030384
-0.018964
-0.026577
-0.022771
-0.018964
0.003874
0.011487
0.011487
0.022907
0.015294
0.011487
-0.011351
-0.003739
-0.015158
-0.026577
-0.030384
-0.030384
-0.034190
-0.034190
-0.026577
-0.037997
-0.003739
0.106649
0.209423
0.255101
0.209423
0.019100
-0.270191
-0.372965
-0.247352
-0.178836
-0.125545
-0.053223
-0.022771
-0.015158
-0.015158
-0.015158
-0.015158
-0.007545
-0.007545
0.007681
0.019100
0.022907
0.038133
0.022907
0.019100
0.007681
-0.007545
-0.003739
0.000068
-0.003739
-0.003739
-0.003739
-0.007545
0.000068
-0.022771
-0.026577
-0.022771
-0.018964
-0.011351
0.003874
0.026713
0.034326
0.022907
0.003874
0.007681
-0.011351
-0.022771
-0.022771
-0.018964
-0.018964
-0.018964
-0.018964
-0.022771
-0.018964
-0.007545
-0.007545
0.000068
0.000068
0.007681
0.003874
-0.003739
-0.015158
-0.015158
-0.015158
-0.015158
-0.015158
-0.022771
-0.022771
-0.018964
-0.015158
-0.022771
-0.015158
-0.011351
-0.007545
-0.015158
-0.015158
-0.015158
-0.022771
-0.030384
-0.041803
-0.045610
-0.049416
-0.045610
-0.037997
-0.045610
-0.041803
-0.030384
0.057165
0.163746
0.209423
0.152326
0.003874
-0.232126
-0.331094
-0.220707
-0.144578
-0.136965
-0.072255
-0.015158
-0.011351
-0.007545
0.003874
-0.015158
-0.007545
0.003874
0.007681
0.011487
0.003874
0.000068
0.011487
0.019100
0.011487
0.015294
0.015294
0.019100
0.026713
0.022907
0.034326
0.030520
0.026713
0.034326
0.038133
0.049552
0.053358
0.041939
0.038133
0.034326
0.049552
0.049552
0.053358
0.030520
0.026713
0.015294
0.019100
0.015294
0.026713
0.034326
0.045745
0.041939
0.053358
0.045745
0.041939
0.038133
0.041939
0.038133
0.030520
0.026713
0.026713
0.019100
0.007681
0.000068
0.007681
0.030520
0.026713
0.011487
0.049552
0.171359
0.243682
0.190391
0.083810
-0.007545
-0.152191
-0.060836
-0.011351
-0.068448
-0.072255
-0.018964
-0.018964
-0.034190
-0.030384
-0.030384
-0.015158
-0.011351
-0.007545
0.011487
0.003874
0.011487
0.007681
-0.003739
0.011487
0.003874
-0.003739
0.000068
0.000068
0.000068
0.000068
-0.011351
-0.022771
-0.026577
-0.007545
0.003874
0.007681
0.022907
0.030520
0.038133
0.038133
0.038133
0.038133
0.026713
0.019100
0.019100
0.015294
0.022907
0.022907
0.022907
0.003874
0.003874
0.007681
-0.003739
-0.007545
-0.007545
-0.015158
-0.015158
-0.007545
-0.007545
-0.007545
0.000068
0.000068
-0.003739
0.000068
0.000068
0.003874
0.019100
0.015294
0.026713
0.034326
0.019100
0.015294
0.015294
0.003874
0.000068
0.003874
0.000068
-0.003739
0.007681
0.095229
0.186585
0.220843
0.159939
0.011487
-0.239739
-0.350127
-0.197868
-0.121739
-0.114126
-0.045610
0.007681
0.019100
0.022907
0.030520
0.022907
0.026713
0.026713
0.022907
0.011487
0.000068
0.000068
-0.003739
0.000068
-0.007545
-0.007545
0.011487
0.019100
0.026713
0.034326
0.034326
0.034326
0.026713
0.007681
0.011487
0.003874
0.011487
0.019100
0.022907
0.019100
0.030520
0.026713
0.022907
0.015294
0.019100
0.019100
0.019100
0.034326
0.041939
0.022907
0.007681
0.003874
0.000068
0.003874
0.000068
-0.003739
-0.003739
-0.003739
0.003874
-0.003739
-0.003739
0.007681
0.022907
0.026713
0.022907
0.030520
0.026713
0.019100
0.015294
0.007681
-0.007545
-0.011351
-0.026577
-0.030384
-0.045610
-0.037997
-0.034190
-0.034190
-0.037997
-0.034190
0.000068
0.102842
0.213230
0.209423
0.144713
-0.060836
-0.327288
-0.338707
-0.175029
-0.163610
-0.133158
-0.060836
-0.034190
-0.026577
-0.030384
-0.022771
-0.026577
-0.026577
-0.030384
-0.018964
-0.022771
-0.018964
0.000068
-0.007545
-0.015158
-0.018964
-0.022771
-0.018964
-0.018964
-0.011351
-0.015158
-0.030384
-0.022771
-0.030384
-0.022771
-0.022771
-0.011351
0.003874
0.019100
0.015294
0.030520
0.030520
0.026713
0.011487
-0.003739
-0.015158
-0.018964
-0.030384
-0.041803
-0.041803
-0.041803
-0.041803
-0.037997
-0.034190
-0.011351
-0.007545
-0.003739
-0.007545
0.003874
0.007681
0.000068
0.000068
-0.018964
-0.018964
-0.026577
-0.018964
-0.007545
-0.007545
-0.022771
-0.022771
-0.022771
-0.015158
-0.022771
-0.018964
-0.015158
-0.003739
-0.015158
-0.003739
0.000068
0.011487
0.011487
0.045745
0.148520
0.220843
0.171359
0.091423
-0.076061
-0.266384
-0.190255
-0.114126
-0.117932
-0.091287
-0.026577
-0.003739
-0.003739
-0.007545
-0.003739
0.000068
0.003874
0.000068
0.000068
0.000068
0.011487
0.015294
0.015294
0.007681
0.011487
0.011487
0.026713
0.019100
0.019100
0.007681
0.019100
0.003874
0.007681
0.019100
0.022907
0.015294
0.022907
0.038133
0.060971
0.068584
0.080004
0.076197
0.057165
0.049552
0.045745
0.026713
0.022907
0.022907
0.015294
0.015294
0.011487
0.011487
0.011487
0.015294
0.011487
0.015294
0.015294
0.022907
0.041939
0.034326
0.041939
0.041939
0.041939
0.049552
0.129488
0.232262
0.258907
0.182778
0.060971
-0.087481
-0.098900
-0.007545
-0.049416
-0.087481
-0.034190
-0.018964
-0.022771
-0.015158
-0.011351
-0.007545
-0.003739
-0.007545
-0.003739
0.000068
-0.003739
-0.007545
-0.007545
-0.011351
-0.011351
-0.011351
-0.011351
-0.018964
-0.026577
-0.034190
-0.030384
-0.015158
-0.015158
-0.015158
-0.007545
-0.007545
0.007681
0.015294
0.022907
0.026713
0.022907
0.019100
0.015294
0.003874
0.003874
-0.003739
-0.007545
-0.007545
0.000068
0.011487
0.015294
0.011487
0.019100
0.015294
0.019100
0.011487
0.003874
0.003874
0.007681
0.011487
0.011487
0.007681
0.007681
0.007681
0.011487
0.011487
0.015294
0.011487
0.015294
0.019100
0.011487
0.003874
-0.003739
-0.003739
0.000068
-0.003739
-0.007545
-0.018964
-0.018964
-0.018964
-0.018964
-0.011351
-0.015158
-0.011351
0.015294
0.106649
0.201810
0.228456
0.171359
0.003874
-0.251159
-0.346320
-0.205481
-0.152191
-0.133158
-0.049416
-0.007545
0.007681
0.007681
-0.007545
-0.015158
-0.026577
-0.018964
-0.018964
-0.003739
0.000068
-0.007545
-0.011351
0.000068
-0.003739
-0.011351
0.000068
0.007681
0.015294
0.022907
0.019100
0.026713
0.026713
0.022907
0.011487
0.015294
0.007681
0.022907
0.030520
0.026713
0.026713
0.019100
0.011487
0.011487
0.007681
0.007681
0.015294
0.019100
0.019100
0.015294
0.019100
0.015294
0.019100
0.011487
0.015294
0.011487
0.007681
0.007681
0.007681
0.003874
-0.011351
-0.007545
0.003874
0.000068
-0.003739
0.003874
0.007681
0.007681
0.007681
0.007681
0.007681
-0.003739
-0.011351
-0.015158
-0.015158
-0.022771
-0.022771
-0.030384
-0.034190
0.030520
0.118068
0.167552
0.140907
0.041939
-0.155997
-0.334901
-0.205481
-0.117932
-0.125545
-0.091287
-0.026577
-0.015158
-0.007545
-0.007545
-0.015158
-0.011351
-0.022771
-0.030384
-0.030384
-0.030384
-0.022771
-0.026577
-0.018964
-0.007545
-0.011351
-0.007545
0.000068
0.000068
0.011487
0.007681
0.015294
0.011487
-0.003739
-0.011351
-0.015158
-0.026577
-0.011351
0.000068
0.007681
0.019100
0.019100
0.022907
0.015294
0.015294
0.011487
0.007681
0.000068
0.000068
0.000068
-0.007545
-0.003739
-0.015158
-0.022771
-0.011351
-0.007545
0.007681
-0.003739
0.011487
0.015294
0.026713
0.034326
0.045745
0.038133
0.022907
0.022907
0.011487
0.011487
0.019100
0.019100
0.099036
0.167552
0.148520
0.099036
-0.041803
-0.239739
-0.251159
-0.091287
-0.079868
-0.095094
-0.034190
-0.003739
0.003874
0.000068
-0.007545
-0.007545
-0.011351
-0.003739
0.007681
0.015294
0.019100
0.015294
0.003874
0.000068
-0.003739
0.000068
0.003874
0.000068
-0.007545
-0.007545
-0.011351
-0.018964
-0.018964
-0.030384
-0.018964
-0.011351
0.000068
0.022907
0.041939
0.049552
0.053358
0.041939
0.045745
0.038133
0.038133
0.034326
0.015294
0.011487
0.007681
-0.007545
-0.011351
0.003874
0.003874
0.003874
0.011487
0.007681
0.011487
0.015294
0.022907
0.034326
0.026713
0.034326
0.026713
0.026713
0.030520
0.015294
0.019100
0.011487
-0.003739
-0.011351
-0.007545
-0.007545
-0.026577
-0.030384
-0.030384
-0.026577
-0.018964
-0.007545
0.003874
0.007681
0.041939
0.140907
0.228456
0.209423
0.159939
0.007681
-0.220707
-0.220707
-0.106513
-0.133158
-0.133158
-0.060836
-0.026577
-0.011351
-0.018964
-0.007545
-0.003739
-0.003739
0.000068
0.000068
0.000068
-0.003739
0.000068
-0.007545
-0.015158
-0.018964
-0.015158
-0.015158
-0.018964
-0.003739
-0.003739
-0.011351
-0.003739
0.000068
0.007681
0.019100
0.030520
0.034326
0.041939
0.049552
0.053358
0.049552
0.038133
0.022907
0.015294
0.015294
0.011487
0.003874
0.011487
0.011487
-0.003739
-0.007545
0.003874
0.003874
0.003874
0.003874
0.007681
0.011487
0.011487
0.011487
0.015294
0.019100
0.026713
0.026713
0.026713
0.026713
0.038133
0.041939
0.026713
0.007681
0.011487
0.007681
0.011487
0.007681
0.000068
-0.003739
-0.015158
-0.018964
-0.018964
-0.007545
0.003874
0.011487
0.022907
0.076197
0.186585
0.239875
0.198004
0.087617
-0.133158
-0.331094
-0.270191
-0.152191
-0.133158
-0.091287
-0.026577
-0.011351
-0.022771
-0.011351
-0.011351
-0.007545
-0.007545
0.000068
0.000068
0.000068
0.007681
0.007681
0.003874
0.003874
0.003874
0.007681
0.007681
0.000068
0.000068
0.000068
0.003874
0.011487
0.019100
0.022907
0.022907
0.015294
0.019100
0.015294
0.015294
0.019100
0.038133
0.030520
0.022907
0.015294
0.015294
0.011487
0.000068
0.003874
0.015294
0.007681
0.019100
0.011487
0.007681
0.007681
0.007681
0.003874
0.000068
0.000068
-0.007545
-0.007545
0.000068
0.003874
0.003874
0.011487
0.011487
0.011487
0.003874
0.007681
0.000068
-0.003739
-0.011351
0.011487
0.068584
0.140907
0.137101
0.110455
-0.068448
-0.300643
-0.304449
-0.125545
-0.114126
-0.117932
-0.045610
-0.018964
-0.011351
-0.015158
-0.026577
-0.026577
-0.015158
-0.011351
-0.026577
-0.015158
-0.018964
-0.030384
-0.034190
-0.037997
-0.037997
-0.034190
-0.041803
-0.037997
-0.026577
-0.026577
-0.022771
-0.030384
-0.037997
-0.041803
-0.034190
-0.022771
-0.011351
0.000068
0.007681
0.011487
0.003874
0.011487
0.000068
0.011487
0.011487
0.003874
0.007681
0.022907
0.015294
-0.011351
-0.015158
-0.018964
-0.015158
-0.003739
0.000068
0.007681
0.003874
0.000068
0.015294
0.026713
0.022907
0.026713
0.034326
0.041939
0.041939
0.034326
0.026713
0.015294
0.015294
0.000068
0.000068
0.000068
0.000068
-0.003739
0.007681
0.007681
0.026713
0.026713
0.038133
0.087617
0.178972
0.224649
0.175165
0.099036
-0.072255
-0.254965
-0.178836
-0.102707
-0.121739
-0.106513
-0.030384
-0.011351
0.003874
0.019100
0.022907
0.041939
0.045745
0.038133
0.030520
0.011487
0.015294
0.011487
0.000068
-0.007545
-0.011351
-0.022771
-0.022771
-0.034190
-0.030384
-0.026577
-0.015158
-0.007545
0.000068
0.030520
0.026713
0.030520
0.034326
0.041939
0.045745
0.053358
0.045745
0.049552
0.030520
0.019100
0.015294
0.007681
0.000068
0.003874
-0.003739
-0.015158
0.000068
-0.003739
0.015294
0.022907
0.003874
0.007681
0.015294
0.015294
0.022907
0.030520
0.022907
0.034326
0.026713
0.026713
0.019100
0.026713
0.068584
0.152326
0.159939
0.106649
0.007681
-0.091287
-0.182642
-0.083674
-0.057029
-0.106513
-0.060836
-0.015158
-0.003739
0.000068
0.003874
-0.007545
0.000068
-0.007545
-0.011351
-0.015158
-0.030384
-0.030384
-0.041803
-0.041803
-0.030384
-0.018964
-0.011351
-0.015158
-0.018964
-0.011351
-0.015158
-0.011351
-0.015158
-0.007545
-0.003739
0.003874
0.000068
0.011487
0.015294
0.019100
0.022907
0.022907
0.026713
0.022907
0.045745
0.026713
0.019100
0.019100
0.015294
0.007681
0.003874
0.003874
0.003874
0.000068
0.000068
0.000068
-0.011351
-0.007545
0.011487
0.019100
0.022907
0.034326
0.045745
0.041939
0.034326
0.030520
0.022907
0.003874
0.007681
0.011487
-0.003739
-0.018964
-0.026577
-0.041803
-0.037997
-0.026577
-0.026577
-0.011351
0.003874
0.003874
0.019100
0.003874
0.003874
-0.003739
-0.007545
-0.011351
-0.018964
-0.022771
-0.026577
-0.034190
-0.030384
-0.026577
-0.030384
-0.015158
-0.015158
0.041939
0.159939
0.239875
0.209423
0.140907
-0.064642
-0.312062
-0.315868
-0.163610
-0.152191
-0.117932
-0.053223
-0.026577
-0.026577
-0.022771
-0.030384
-0.003739
0.000068
0.000068
-0.007545
-0.007545
-0.007545
0.003874
-0.003739
0.000068
-0.007545
-0.007545
-0.011351
-0.011351
-0.011351
0.000068
0.003874
0.003874
0.007681
0.003874
-0.003739
-0.011351
0.003874
0.011487
0.022907
0.034326
0.034326
0.034326
0.041939
0.041939
0.038133
0.022907
0.019100
0.011487
0.007681
0.011487
0.011487
0.015294
0.011487
0.011487
0.011487
0.015294
0.026713
0.030520
0.038133
0.038133
0.045745
0.045745
0.041939
0.038133
0.034326
0.026713
0.026713
0.011487
0.000068
0.000068
0.003874
0.000068
0.003874
-0.003739
0.000068
-0.003739
0.000068
-0.003739
0.007681
0.019100
0.022907
0.022907
0.011487
0.019100
0.007681
0.003874
-0.011351
-0.018964
-0.018964
-0.018964
-0.030384
-0.022771
-0.015158
-0.018964
-0.011351
-0.003739
-0.007545
0.000068
0.011487
0.007681
0.003874
0.038133
0.125681
0.201810
0.186585
0.125681
-0.057029
-0.308256
-0.334901
-0.175029
-0.144578
-0.095094
-0.018964
0.011487
0.007681
0.011487
0.003874
0.007681
0.007681
-0.003739
-0.007545
-0.003739
-0.007545
-0.003739
-0.015158
-0.011351
-0.015158
-0.003739
-0.011351
-0.007545
0.000068
0.015294
0.019100
0.019100
0.011487
-0.018964
-0.022771
-0.026577
-0.015158
-0.003739
0.007681
0.015294
0.022907
0.019100
0.022907
0.022907
0.019100
0.022907
0.022907
0.015294
0.022907
0.019100
0.011487
0.011487
0.011487
0.003874
0.011487
0.015294
0.011487
0.015294
0.011487
0.019100
0.011487
0.015294
0.011487
0.011487
0.019100
0.015294
0.007681
0.007681
0.015294
0.015294
0.019100
0.007681
0.000068
-0.007545
-0.018964
-0.026577
-0.022771
-0.030384
-0.022771
-0.034190
-0.026577
-0.037997
-0.026577
-0.018964
-0.015158
-0.003739
0.007681
0.049552
0.148520
0.224649
0.194197
0.114262
-0.076061
-0.319675
-0.327288
-0.171223
-0.148384
-0.129352
-0.049416
-0.022771
-0.022771
-0.015158
0.003874
0.000068
0.011487
0.011487
-0.007545
0.000068
-0.007545
-0.007545
-0.007545
-0.018964
-0.018964
-0.022771
-0.022771
-0.018964
-0.018964
0.000068
0.011487
0.011487
0.022907
0.034326
0.041939
0.038133
0.038133
0.034326
0.038133
0.034326
0.026713
0.034326
0.022907
0.026713
0.022907
0.003874
0.003874
0.003874
0.003874
0.019100
0.022907
0.026713
0.030520
0.022907
0.015294
0.019100
0.015294
0.015294
0.026713
0.030520
0.034326
0.041939
0.080004
0.159939
0.232262
0.209423
0.095229
-0.018964
-0.178836
-0.117932
-0.034190
-0.079868
-0.060836
-0.011351
0.007681
0.007681
0.015294
0.015294
0.030520
0.034326
0.007681
0.003874
-0.003739
-0.007545
-0.015158
-0.034190
-0.022771
-0.034190
-0.045610
-0.034190
-0.034190
-0.018964
-0.022771
-0.026577
-0.022771
-0.022771
-0.011351
-0.007545
0.003874
0.015294
0.007681
0.011487
0.015294
0.007681
0.011487
0.000068
-0.015158
-0.022771
-0.022771
-0.015158
0.003874
0.011487
0.015294
0.019100
0.026713
0.034326
0.038133
0.034326
0.026713
0.022907
0.026713
0.026713
0.019100
0.015294
0.011487
0.000068
-0.007545
-0.007545
-0.011351
-0.011351
0.045745
0.114262
0.114262
0.076197
-0.026577
-0.197868
-0.239739
-0.087481
-0.068448
-0.102707
-0.045610
-0.015158
-0.018964
-0.011351
-0.011351
-0.007545
-0.011351
-0.022771
-0.011351
-0.015158
-0.007545
0.000068
-0.003739
0.007681
0.003874
0.003874
0.003874
0.007681
0.000068
-0.011351
-0.003739
-0.011351
-0.018964
-0.015158
-0.011351
-0.007545
-0.007545
0.011487
0.030520
0.041939
0.038133
0.038133
0.045745
0.045745
0.038133
0.022907
0.019100
0.019100
0.011487
0.007681
0.003874
0.003874
0.011487
0.007681
0.003874
0.007681
0.007681
0.026713
0.022907
0.019100
0.019100
0.022907
0.015294
0.011487
0.011487
0.000068
-0.003739
-0.011351
-0.003739
0.000068
-0.003739
-0.007545
-0.007545
0.000068
0.045745
0.118068
0.175165
0.148520
0.114262
-0.049416
-0.270191
-0.197868
-0.083674
-0.117932
-0.125545
-0.049416
-0.034190
-0.015158
-0.011351
-0.007545
-0.007545
-0.011351
-0.018964
-0.015158
-0.015158
-0.011351
-0.015158
-0.007545
0.000068
-0.003739
-0.011351
-0.007545
-0.018964
-0.022771
-0.034190
-0.034190
-0.026577
-0.030384
-0.022771
-0.007545
0.011487
0.026713
0.022907
0.030520
0.034326
0.041939
0.038133
0.030520
0.015294
0.007681
0.000068
0.003874
-0.011351
-0.011351
-0.011351
-0.007545
-0.003739
0.003874
0.015294
0.003874
-0.003739
0.019100
0.019100
0.019100
0.015294
0.019100
0.015294
0.011487
0.007681
0.007681
0.003874
0.000068
-0.007545
-0.015158
-0.018964
-0.018964
-0.022771
-0.022771
-0.026577
-0.026577
-0.015158
-0.007545
0.000068
-0.015158
-0.003739
-0.011351
0.045745
0.144713
0.201810
0.167552
0.068584
-0.129352
-0.323481
-0.235933
-0.125545
-0.140771
-0.102707
-0.026577
-0.007545
-0.015158
0.000068
-0.003739
0.000068
0.000068
0.000068
-0.003739
-0.007545
-0.003739
0.003874
-0.003739
0.003874
-0.011351
-0.015158
-0.018964
-0.022771
-0.022771
-0.018964
-0.003739
-0.003739
0.003874
0.011487
0.011487
0.022907
0.034326
0.049552
0.057165
0.049552
0.045745
0.041939
0.019100
0.011487
0.000068
-0.003739
-0.011351
-0.007545
-0.015158
-0.003739
0.003874
0.019100
0.030520
0.038133
0.045745
0.038133
0.041939
0.026713
0.030520
0.026713
0.026713
0.030520
0.022907
0.015294
0.000068
0.015294
0.015294
0.011487
0.007681
0.011487
0.015294
0.015294
0.015294
0.007681
0.007681
0.011487
0.011487
0.011487
0.007681
0.000068
0.064778
0.137101
0.190391
0.133294
0.053358
-0.114126
-0.247352
-0.125545
-0.095094
-0.140771
-0.110320
-0.045610
-0.026577
-0.007545
0.000068
0.000068
0.007681
0.003874
0.003874
0.003874
0.003874
0.007681
0.000068
0.003874
0.000068
-0.011351
-0.007545
-0.018964
-0.034190
-0.030384
-0.034190
-0.015158
-0.015158
-0.022771
-0.018964
-0.003739
0.007681
0.030520
0.030520
0.049552
0.060971
0.072391
0.072391
0.060971
0.041939
0.015294
0.000068
-0.011351
-0.011351
-0.022771
-0.034190
-0.026577
-0.018964
-0.007545
-0.003739
0.011487
0.019100
0.026713
0.038133
0.038133
0.049552
0.049552
0.053358
0.045745
0.030520
0.022907
0.015294
0.000068
-0.022771
-0.018964
-0.015158
-0.018964
-0.022771
-0.022771
-0.015158
-0.011351
-0.003739
-0.011351
-0.003739
0.007681
0.026713
0.026713
0.022907
0.015294
0.007681
-0.011351
-0.011351
-0.011351
-0.011351
-0.026577
-0.030384
-0.034190
-0.026577
-0.030384
-0.026577
-0.022771
-0.015158
-0.011351
0.000068
0.011487
0.011487
0.011487
0.034326
0.118068
0.186585
0.194197
0.148520
-0.018964
-0.258772
-0.327288
-0.186449
-0.144578
-0.114126
-0.045610
-0.003739
0.011487
0.007681
0.000068
0.003874
0.000068
0.000068
0.011487
0.007681
0.003874
0.003874
-0.003739
-0.007545
-0.003739
-0.007545
-0.011351
-0.003739
0.000068
0.003874
0.003874
0.000068
0.007681
0.007681
0.007681
0.011487
0.019100
0.026713
0.030520
0.030520
0.045745
0.034326
0.034326
0.026713
0.015294
0.007681
0.015294
0.030520
0.022907
0.011487
-0.003739
0.003874
0.011487
0.015294
0.007681
0.015294
0.019100
0.019100
0.011487
0.007681
0.019100
0.019100
0.030520
0.041939
0.049552
0.041939
0.026713
0.019100
0.003874
0.015294
0.007681
0.026713
0.064778
0.118068
0.121875
0.076197
-0.026577
-0.224513
-0.247352
-0.072255
-0.068448
-0.117932
-0.045610
-0.003739
0.000068
0.000068
-0.011351
-0.011351
0.003874
-0.011351
-0.007545
-0.003739
-0.007545
0.003874
0.000068
0.003874
0.011487
0.007681
0.007681
0.007681
-0.003739
-0.003739
-0.022771
-0.026577
-0.022771
-0.030384
-0.026577
-0.018964
-0.007545
0.015294
0.022907
0.041939
0.049552
0.053358
0.045745
0.049552
0.041939
0.038133
0.026713
0.022907
0.019100
0.000068
-0.022771
-0.030384
-0.022771
-0.022771
-0.022771
-0.018964
-0.015158
-0.011351
0.007681
0.019100
0.026713
0.019100
0.019100
0.026713
0.026713
0.022907
0.003874
-0.011351
-0.011351
-0.018964
-0.022771
-0.011351
-0.015158
-0.011351
0.000068
0.000068
0.000068
0.000068
0.000068
0.007681
0.007681
0.011487
0.080004
0.156133
0.201810
0.137101
0.003874
-0.186449
-0.327288
-0.205481
-0.110320
-0.117932
-0.087481
-0.022771
-0.011351
-0.011351
-0.007545
-0.011351
0.000068
0.007681
0.007681
0.007681
-0.007545
-0.011351
-0.015158
-0.015158
-0.003739
-0.011351
0.003874
0.003874
0.011487
0.015294
0.011487
0.003874
0.000068
0.003874
0.007681
0.011487
0.015294
0.022907
0.034326
0.038133
0.041939
0.038133
0.030520
0.007681
0.007681
0.003874
-0.003739
-0.003739
0.007681
0.007681
0.007681
0.007681
-0.003739
-0.007545
0.000068
0.011487
0.015294
0.026713
0.026713
0.026713
0.022907
0.011487
0.011487
0.015294
0.000068
-0.011351
-0.018964
-0.015158
-0.011351
-0.003739
-0.003739
-0.003739
0.000068
0.003874
0.000068
0.007681
0.015294
0.053358
0.133294
0.205617
0.178972
0.137101
-0.060836
-0.285417
-0.213094
-0.098900
-0.129352
-0.098900
-0.015158
0.000068
0.000068
0.003874
0.000068
0.007681
0.003874
0.000068
0.003874
-0.003739
0.003874
-0.003739
-0.011351
-0.007545
-0.018964
-0.015158
-0.015158
-0.022771
-0.015158
-0.011351
-0.015158
-0.003739
-0.011351
-0.011351
0.003874
0.011487
0.019100
0.038133
0.045745
0.053358
0.049552
0.038133
0.026713
0.011487
0.007681
0.007681
0.003874
0.003874
-0.007545
-0.007545
-0.011351
-0.011351
-0.011351
0.003874
0.003874
0.003874
0.011487
0.011487
0.003874
0.011487
0.007681
0.011487
0.007681
0.011487
0.003874
0.000068
0.011487
0.007681
-0.007545
-0.007545
-0.011351
-0.015158
-0.015158
-0.007545
-0.018964
-0.015158
-0.015158
-0.015158
-0.011351
-0.007545
-0.003739
-0.003739
0.030520
0.129488
0.217036
0.205617
0.133294
-0.045610
-0.262578
-0.254965
-0.117932
-0.133158
-0.121739
-0.057029
-0.026577
-0.018964
-0.011351
-0.007545
-0.007545
0.000068
0.003874
0.015294
0.019100
0.015294
0.015294
0.011487
0.007681
0.011487
-0.003739
-0.011351
-0.003739
-0.007545
-0.007545
-0.007545
-0.003739
0.003874
0.003874
0.011487
0.026713
0.041939
0.060971
0.064778
0.076197
0.068584
0.057165
0.045745
0.038133
0.015294
0.000068
-0.007545
-0.015158
-0.007545
-0.007545
0.003874
0.003874
0.007681
0.015294
0.019100
0.026713
0.034326
0.041939
0.045745
0.041939
0.034326
0.038133
0.026713
0.015294
0.003874
-0.015158
-0.011351
-0.007545
-0.007545
-0.011351
0.000068
0.003874
0.007681
0.007681
0.003874
0.011487
0.019100
0.007681
0.007681
0.003874
0.003874
-0.003739
-0.011351
-0.022771
-0.026577
-0.030384
-0.034190
-0.026577
-0.026577
-0.026577
-0.022771
-0.011351
-0.011351
-0.015158
-0.007545
-0.003739
-0.007545
0.000068
0.003874
-0.003739
-0.003739
-0.011351
-0.015158
0.007681
0.076197
0.159939
0.186585
0.148520
-0.015158
-0.243546
-0.312062
-0.182642
-0.133158
-0.114126
-0.045610
-0.007545
-0.007545
0.000068
0.000068
0.000068
-0.003739
-0.003739
-0.011351
-0.007545
-0.007545
-0.007545
-0.015158
-0.015158
-0.015158
-0.011351
-0.007545
0.000068
-0.011351
-0.011351
-0.003739
0.000068
0.007681
0.000068
0.003874
0.011487
0.015294
0.030520
0.045745
0.045745
0.038133
0.030520
0.019100
0.007681
0.000068
-0.003739
0.000068
-0.003739
0.000068
-0.007545
-0.003739
0.007681
0.026713
0.034326
0.041939
0.038133
0.041939
0.038133
0.038133
0.026713
0.030520
0.034326
0.022907
0.007681
-0.003739
-0.011351
-0.011351
-0.011351
-0.003739
-0.003739
0.003874
-0.003739
-0.003739
-0.003739
0.011487
0.015294
0.015294
0.072391
0.137101
0.175165
0.144713
0.057165
-0.159804
-0.300643
-0.163610
-0.110320
-0.144578
-0.083674
-0.022771
-0.003739
0.003874
0.007681
-0.003739
0.011487
0.015294
0.015294
0.019100
0.007681
0.000068
-0.022771
-0.034190
-0.030384
-0.041803
-0.037997
-0.022771
-0.015158
0.003874
0.000068
0.007681
0.019100
0.003874
0.000068
0.007681
0.022907
0.041939
0.041939
0.041939
0.034326
0.022907
0.011487
0.003874
-0.003739
-0.003739
0.000068
0.000068
0.003874
0.007681
0.003874
0.007681
0.007681
0.022907
0.026713
0.026713
0.022907
0.015294
0.011487
0.003874
-0.007545
-0.007545
-0.011351
-0.018964
-0.018964
-0.011351
-0.007545
0.000068
0.011487
0.007681
0.022907
0.011487
0.019100
0.026713
0.026713
0.019100
0.007681
0.015294
0.068584
0.137101
0.175165
0.148520
0.049552
-0.155997
-0.273997
-0.152191
-0.106513
-0.144578
-0.072255
-0.011351
0.011487
0.011487
0.019100
0.011487
0.015294
0.007681
0.003874
0.000068
-0.015158
-0.015158
-0.011351
-0.011351
-0.015158
-0.026577
-0.015158
-0.015158
-0.011351
0.003874
0.003874
0.003874
0.003874
0.003874
0.011487
0.011487
0.022907
0.034326
0.038133
0.038133
0.034326
0.030520
0.015294
0.007681
-0.011351
-0.015158
-0.003739
0.000068
0.003874
0.007681
0.007681
0.011487
0.019100
0.026713
0.038133
0.045745
0.045745
0.049552
0.034326
0.026713
0.015294
0.003874
-0.003739
-0.011351
-0.003739
0.003874
0.000068
-0.003739
-0.007545
-0.007545
0.003874
0.003874
0.003874
0.041939
0.099036
0.152326
0.118068
0.080004
-0.076061
-0.266384
-0.213094
-0.072255
-0.106513
-0.102707
-0.037997
-0.003739
-0.003739
-0.003739
0.000068
0.011487
0.007681
0.011487
0.007681
0.003874
0.000068
-0.003739
-0.015158
-0.015158
-0.026577
-0.022771
-0.026577
-0.022771
-0.015158
-0.007545
-0.007545
-0.011351
0.000068
0.011487
0.003874
0.019100
0.034326
0.041939
0.045745
0.034326
0.022907
0.003874
0.003874
-0.007545
-0.011351
-0.011351
-0.007545
-0.007545
-0.015158
-0.007545
0.000068
0.000068
0.003874
0.003874
0.022907
0.034326
0.045745
0.034326
0.038133
0.030520
0.026713
0.022907
0.015294
0.011487
0.003874
-0.003739
-0.015158
-0.022771
-0.022771
-0.022771
-0.026577
-0.018964
-0.015158
-0.007545
0.003874
0.011487
0.015294
0.022907
0.022907
0.011487
0.011487
0.000068
-0.003739
-0.003739
-0.018964
-0.022771
0.045745
0.137101
0.186585
0.125681
0.015294
-0.194062
-0.327288
-0.213094
-0.102707
-0.110320
-0.064642
0.000068
0.015294
0.011487
0.019100
0.007681
-0.003739
-0.015158
-0.015158
-0.022771
-0.026577
-0.030384
-0.026577
-0.030384
-0.003739
-0.003739
0.011487
0.015294
0.011487
0.019100
0.022907
0.022907
0.022907
0.007681
0.011487
0.000068
-0.007545
-0.003739
0.003874
0.019100
0.034326
0.038133
0.041939
0.038133
0.026713
0.015294
0.011487
0.011487
0.019100
0.022907
0.022907
0.011487
0.000068
0.003874
-0.007545
-0.007545
-0.003739
0.000068
0.011487
0.011487
0.030520
0.034326
0.030520
0.034326
0.034326
0.022907
0.019100
0.019100
0.026713
0.019100
0.015294
-0.003739
-0.007545
-0.007545
-0.007545
-0.007545
-0.011351
-0.011351
-0.007545
0.041939
0.121875
0.205617
0.186585
0.125681
-0.041803
-0.258772
-0.235933
-0.079868
-0.087481
-0.114126
-0.045610
-0.022771
-0.018964
-0.018964
-0.011351
0.000068
0.003874
-0.011351
-0.015158
-0.007545
-0.011351
-0.011351
-0.007545
-0.003739
-0.007545
-0.003739
-0.003739
0.000068
0.000068
-0.003739
-0.007545
-0.011351
-0.007545
-0.007545
-0.011351
0.000068
0.007681
0.011487
0.030520
0.030520
0.034326
0.034326
0.030520
0.019100
0.022907
0.019100
0.019100
0.019100
0.000068
-0.007545
-0.007545
-0.011351
-0.003739
0.011487
0.011487
0.011487
0.000068
-0.003739
-0.003739
0.011487
0.019100
0.019100
0.019100
0.019100
0.022907
0.007681
-0.003739
-0.007545
-0.011351
-0.011351
-0.007545
-0.011351
-0.007545
0.038133
0.091423
0.106649
0.076197
0.000068
-0.182642
-0.235933
-0.072255
-0.045610
-0.095094
-0.041803
0.007681
0.011487
0.003874
0.003874
-0.011351
0.000068
-0.015158
-0.018964
-0.026577
-0.022771
-0.022771
-0.011351
-0.011351
-0.003739
0.000068
0.007681
0.019100
0.026713
0.019100
0.003874
0.000068
-0.003739
-0.007545
-0.007545
-0.011351
-0.011351
-0.011351
0.003874
0.019100
0.030520
0.030520
0.030520
0.034326
0.038133
0.041939
0.038133
0.038133
0.030520
0.030520
0.022907
0.015294
0.015294
0.011487
-0.011351
-0.003739
-0.003739
0.000068
-0.003739
0.003874
0.000068
0.007681
0.034326
0.038133
0.045745
0.057165
0.034326
0.030520
0.041939
0.114262
0.163746
0.118068
0.038133
-0.098900
-0.258772
-0.239739
-0.064642
-0.083674
-0.129352
-0.068448
-0.034190
-0.026577
-0.007545
0.015294
0.015294
0.026713
0.015294
0.019100
0.007681
-0.003739
-0.015158
0.000068
-0.003739
0.003874
0.003874
0.007681
0.000068
-0.011351
-0.003739
-0.003739
-0.011351
-0.018964
-0.018964
-0.022771
-0.026577
-0.018964
-0.007545
0.000068
0.015294
0.022907
0.022907
0.022907
0.026713
0.019100
0.011487
0.011487
0.019100
0.019100
0.019100
0.011487
0.003874
-0.003739
-0.015158
-0.011351
-0.007545
-0.003739
-0.003739
0.003874
0.015294
0.019100
0.030520
0.030520
0.022907
0.026713
0.030520
0.030520
0.026713
0.026713
0.015294
0.000068
-0.007545
-0.015158
-0.011351
-0.007545
-0.011351
-0.003739
0.041939
0.140907
0.205617
0.163746
0.099036
-0.087481
-0.289223
-0.220707
-0.102707
-0.110320
-0.114126
-0.041803
-0.018964
-0.007545
-0.007545
0.000068
0.019100
0.019100
0.015294
0.007681
0.000068
0.003874
-0.003739
-0.011351
-0.003739
-0.007545
-0.011351
0.000068
-0.003739
-0.011351
-0.022771
-0.018964
-0.011351
0.000068
0.003874
-0.015158
-0.003739
0.000068
0.011487
0.026713
0.034326
0.030520
0.030520
0.022907
0.019100
0.007681
0.000068
0.000068
-0.003739
0.000068
0.003874
0.011487
0.011487
0.003874
0.000068
0.000068
-0.003739
0.007681
0.011487
0.011487
0.015294
0.019100
0.015294
0.011487
0.011487
0.019100
0.019100
0.019100
0.011487
0.034326
0.106649
0.156133
0.114262
0.049552
-0.095094
-0.270191
-0.232126
-0.072255
-0.102707
-0.102707
-0.037997
-0.022771
-0.022771
-0.018964
-0.011351
-0.007545
0.000068
-0.003739
-0.003739
0.000068
0.011487
0.019100
0.022907
0.022907
0.011487
-0.003739
-0.007545
-0.015158
-0.007545
-0.011351
-0.011351
-0.011351
-0.018964
-0.011351
-0.015158
-0.011351
-0.003739
0.007681
0.026713
0.038133
0.049552
0.060971
0.057165
0.045745
0.030520
0.026713
0.015294
0.011487
0.011487
0.011487
0.007681
0.007681
0.000068
-0.003739
-0.007545
-0.003739
0.003874
0.007681
0.015294
0.022907
0.019100
0.026713
0.019100
0.007681
0.003874
0.007681
-0.003739
0.007681
0.003874
0.003874
0.011487
0.003874
-0.007545
-0.011351
-0.007545
0.007681
0.000068
0.000068
-0.011351
-0.011351
-0.007545
-0.003739
-0.007545
-0.011351
-0.011351
-0.007545
-0.003739
0.003874
0.003874
0.080004
0.163746
0.190391
0.137101
0.038133
-0.136965
-0.254965
-0.159804
-0.106513
-0.133158
-0.087481
-0.037997
-0.022771
-0.015158
-0.003739
-0.003739
0.000068
-0.003739
0.003874
0.000068
-0.003739
-0.022771
-0.026577
-0.011351
-0.003739
0.003874
0.007681
0.003874
0.000068
-0.007545
-0.011351
-0.018964
-0.018964
-0.015158
-0.007545
0.000068
0.011487
0.026713
0.041939
0.045745
0.041939
0.041939
0.034326
0.038133
0.030520
0.003874
0.007681
0.007681
0.000068
-0.003739
0.003874
0.011487
0.019100
0.015294
0.015294
0.022907
0.022907
0.026713
0.019100
0.022907
0.034326
0.038133
0.038133
0.034326
0.022907
0.015294
0.011487
0.007681
0.007681
0.041939
0.110455
0.144713
0.076197
-0.030384
-0.159804
-0.289223
-0.155997
-0.045610
-0.102707
-0.072255
-0.007545
0.003874
0.007681
0.030520
0.019100
0.015294
0.007681
-0.003739
-0.003739
-0.015158
-0.015158
-0.003739
-0.003739
-0.003739
-0.015158
-0.018964
-0.022771
-0.022771
-0.003739
-0.003739
0.007681
0.019100
0.022907
0.022907
0.022907
0.011487
0.026713
0.026713
0.034326
0.030520
0.022907
0.030520
0.015294
0.011487
0.003874
-0.015158
-0.015158
-0.007545
0.000068
0.022907
0.026713
0.030520
0.038133
0.034326
0.034326
0.022907
0.022907
0.026713
0.026713
0.019100
0.022907
0.011487
0.011487
0.007681
0.007681
-0.003739
-0.007545
-0.018964
-0.015158
-0.007545
-0.015158
-0.007545
-0.007545
-0.003739
-0.007545
-0.007545
0.007681
0.000068
0.007681
0.003874
0.011487
0.011487
0.000068
0.003874
0.000068
-0.015158
-0.030384
-0.018964
-0.022771
-0.022771
-0.018964
-0.026577
-0.018964
-0.015158
-0.015158
-0.015158
-0.011351
-0.011351
-0.011351
-0.011351
0.000068
0.000068
0.003874
0.000068
0.000068
0.000068
-0.003739
-0.011351
0.000068
0.083810
0.163746
0.175165
0.133294
-0.003739
-0.220707
-0.312062
-0.190255
-0.125545
-0.121739
-0.049416
-0.011351
-0.003739
0.003874
0.011487
0.003874
-0.003739
-0.007545
-0.018964
-0.015158
-0.018964
-0.022771
-0.022771
-0.015158
-0.011351
0.000068
0.007681
0.007681
0.007681
0.007681
0.003874
0.007681
0.003874
-0.007545
-0.011351
-0.022771
-0.003739
0.003874
0.011487
0.019100
0.038133
0.045745
0.038133
0.045745
0.034326
0.030520
0.026713
0.011487
0.007681
0.003874
0.007681
0.003874
0.000068
-0.007545
-0.015158
-0.030384
-0.034190
-0.026577
0.007681
0.038133
0.049552
0.057165
0.045745
0.045745
0.045745
0.041939
0.038133
0.030520
0.022907
0.019100
0.019100
0.019100
0.007681
0.003874
-0.011351
-0.007545
-0.007545
-0.011351
-0.015158
-0.003739
-0.011351
-0.003739
-0.011351
0.003874
0.026713
0.106649
0.190391
0.205617
0.152326
0.015294
-0.178836
-0.235933
-0.114126
-0.079868
-0.129352
-0.083674
-0.037997
-0.022771
-0.018964
-0.011351
-0.011351
-0.011351
-0.015158
-0.015158
-0.011351
0.000068
-0.003739
0.000068
0.003874
-0.003739
-0.007545
-0.011351
-0.015158
-0.018964
-0.011351
-0.003739
0.007681
0.003874
0.003874
0.000068
0.007681
0.019100
0.030520
0.030520
0.041939
0.041939
0.015294
0.019100
0.007681
-0.011351
-0.015158
-0.015158
-0.007545
0.003874
0.003874
0.007681
0.007681
0.022907
0.019100
0.026713
0.015294
0.011487
0.007681
-0.003739
-0.011351
-0.011351
-0.011351
0.000068
0.000068
0.000068
0.011487
0.015294
0.019100
0.019100
0.022907
0.026713
0.015294
0.015294
0.019100
0.022907
0.007681
0.003874
-0.007545
0.007681
0.099036
0.182778
0.159939
0.133294
-0.015158
-0.228320
-0.201675
-0.087481
-0.129352
-0.155997
-0.083674
-0.045610
-0.030384
-0.022771
-0.015158
-0.018964
-0.015158
-0.011351
0.000068
0.000068
0.011487
0.022907
0.019100
0.000068
-0.011351
-0.022771
-0.026577
-0.030384
-0.022771
-0.022771
-0.018964
-0.015158
-0.018964
-0.015158
0.000068
0.011487
0.026713
0.030520
0.045745
0.053358
0.060971
0.049552
0.030520
0.011487
0.007681
-0.003739
0.000068
-0.007545
-0.015158
-0.007545
-0.011351
-0.015158
-0.003739
0.003874
0.003874
0.019100
0.030520
0.038133
0.041939
0.041939
0.038133
0.026713
0.026713
0.015294
0.003874
-0.007545
-0.011351
-0.011351
-0.003739
-0.003739
-0.007545
0.000068
0.003874
-0.003739
0.003874
0.007681
0.011487
0.007681
0.003874
0.007681
0.000068
-0.003739
-0.015158
-0.022771
-0.022771
-0.018964
-0.015158
-0.007545
-0.007545
0.003874
0.003874
0.000068
-0.003739
-0.007545
-0.015158
-0.015158
-0.007545
-0.011351
-0.018964
-0.003739
-0.007545
-0.003739
-0.003739
0.003874
0.003874
0.007681
0.003874
0.007681
0.007681
0.007681
0.003874
-0.015158
-0.007545
-0.003739
-0.011351
-0.007545
-0.007545
-0.007545
0.034326
0.121875
0.198004
0.178972
0.121875
-0.072255
-0.273997
-0.281610
-0.136965
-0.125545
-0.079868
-0.030384
-0.015158
-0.007545
-0.003739
0.007681
-0.007545
-0.007545
-0.011351
0.007681
0.007681
0.011487
0.015294
0.011487
0.007681
0.026713
0.026713
0.019100
0.003874
0.000068
0.003874
0.000068
-0.011351
-0.011351
-0.015158
-0.011351
-0.022771
-0.007545
0.003874
0.022907
0.041939
0.064778
0.068584
0.064778
0.045745
0.026713
0.015294
0.007681
-0.003739
-0.011351
-0.003739
0.000068
-0.007545
-0.018964
-0.018964
0.000068
0.003874
0.015294
0.030520
0.030520
0.034326
0.038133
0.030520
0.038133
0.030520
0.026713
0.015294
0.015294
0.011487
-0.007545
-0.015158
-0.011351
-0.003739
-0.003739
-0.007545
-0.003739
-0.015158
-0.003739
-0.007545
0.000068
0.003874
0.011487
0.003874
0.011487
0.003874
0.000068
0.015294
0.095229
0.182778
0.175165
0.118068
-0.053223
-0.289223
-0.304449
-0.144578
-0.110320
-0.110320
-0.034190
0.007681
0.019100
0.019100
0.000068
-0.003739
-0.007545
-0.007545
-0.011351
-0.018964
-0.022771
-0.018964
-0.015158
-0.026577
-0.015158
0.000068
0.011487
0.011487
0.022907
0.019100
0.015294
0.007681
0.011487
0.011487
0.015294
0.019100
0.007681
0.022907
0.030520
0.022907
0.030520
0.034326
0.026713
0.022907
0.015294
0.026713
0.003874
0.000068
-0.007545
0.000068
-0.003739
-0.003739
0.000068
0.000068
0.000068
-0.003739
-0.011351
-0.003739
0.000068
-0.003739
0.007681
0.019100
0.022907
0.030520
0.022907
0.015294
0.015294
0.011487
0.007681
0.011487
0.000068
-0.003739
-0.007545
-0.007545
-0.011351
-0.011351
-0.007545
-0.018964
-0.011351
-0.015158
0.000068
-0.003739
0.000068
0.007681
-0.003739
0.003874
0.003874
0.003874
0.000068
-0.007545
-0.003739
-0.011351
-0.015158
-0.018964
-0.026577
-0.030384
-0.026577
-0.003739
-0.007545
-0.007545
-0.003739
-0.011351
-0.015158
0.000068
0.060971
0.159939
0.228456
0.194197
0.118068
-0.057029
-0.228320
-0.201675
-0.133158
-0.140771
-0.095094
-0.030384
-0.007545
-0.003739
-0.007545
-0.003739
0.000068
0.003874
0.007681
0.015294
0.015294
0.007681
0.011487
0.011487
0.015294
0.011487
0.000068
0.000068
0.003874
0.007681
0.000068
0.000068
-0.003739
-0.003739
0.000068
-0.011351
0.000068
0.007681
0.011487
0.030520
0.041939
0.045745
0.041939
0.038133
0.030520
0.034326
0.011487
0.019100
-0.003739
0.003874
0.000068
-0.003739
0.000068
-0.003739
0.003874
0.003874
0.007681
0.022907
0.026713
0.030520
0.038133
0.034326
0.038133
0.038133
0.030520
0.003874
0.003874
0.003874
0.011487
-0.003739
0.003874
0.000068
0.007681
0.007681
0.011487
0.007681
0.003874
0.003874
-0.007545
-0.015158
-0.011351
-0.003739
-0.018964
-0.026577
-0.026577
-0.030384
-0.037997
-0.034190
-0.034190
-0.026577
-0.015158
-0.007545
0.000068
-0.011351
-0.007545
0.000068
0.011487
0.011487
0.007681
0.007681
0.003874
-0.007545
-0.011351
-0.011351
-0.030384
-0.034190
-0.037997
-0.034190
-0.026577
-0.022771
-0.018964
0.007681
0.110455
0.201810
0.213230
0.171359
0.015294
-0.216900
-0.285417
-0.163610
-0.144578
-0.133158
-0.076061
-0.045610
-0.034190
-0.034190
-0.026577
-0.018964
-0.011351
0.007681
0.011487
0.022907
0.015294
0.011487
0.000068
-0.003739
-0.011351
-0.015158
-0.003739
-0.011351
-0.015158
-0.007545
-0.003739
0.007681
0.019100
0.026713
0.038133
0.038133
0.045745
0.045745
0.034326
0.030520
0.030520
0.022907
0.019100
0.007681
0.000068
-0.007545
-0.003739
-0.007545
0.011487
0.026713
0.030520
0.030520
0.030520
0.030520
0.019100
0.026713
0.022907
0.015294
0.000068
0.000068
-0.007545
0.000068
0.007681
0.015294
0.019100
0.026713
0.030520
0.026713
0.022907
0.022907
0.022907
0.015294
0.034326
0.087617
0.148520
0.118068
0.068584
-0.083674
-0.277804
-0.266384
-0.087481
-0.091287
-0.098900
-0.022771
0.000068
-0.003739
0.003874
0.003874
0.007681
0.000068
0.003874
0.000068
0.003874
-0.007545
0.003874
0.000068
-0.003739
-0.007545
0.000068
-0.007545
-0.011351
-0.007545
-0.007545
-0.011351
-0.011351
0.000068
0.007681
0.011487
0.000068
0.007681
0.015294
0.022907
0.034326
0.026713
0.022907
0.022907
0.007681
0.003874
0.003874
0.011487
0.003874
0.000068
0.007681
0.015294
0.019100
0.026713
0.022907
0.019100
0.015294
0.019100
0.015294
0.011487
0.003874
0.000068
0.003874
0.000068
0.007681
0.015294
0.000068
0.011487
0.011487
0.015294
0.022907
0.015294
0.007681
0.007681
0.007681
0.003874
0.003874
-0.003739
-0.011351
-0.015158
-0.015158
-0.018964
-0.011351
0.000068
0.007681
-0.003739
0.000068
0.011487
0.110455
0.205617
0.220843
0.148520
-0.007545
-0.239739
-0.304449
-0.190255
-0.136965
-0.133158
-0.076061
-0.037997
-0.022771
-0.018964
-0.015158
-0.011351
-0.007545
0.000068
0.003874
0.007681
0.022907
0.022907
0.011487
0.007681
0.003874
-0.007545
-0.003739
-0.011351
-0.018964
-0.018964
-0.015158
-0.003739
0.011487
0.022907
0.022907
0.034326
0.034326
0.030520
0.038133
0.045745
0.057165
0.045745
0.034326
0.019100
0.007681
-0.007545
-0.015158
-0.011351
-0.015158
-0.003739
0.003874
0.007681
0.011487
0.019100
0.007681
0.003874
0.007681
0.015294
0.007681
0.007681
0.003874
-0.007545
-0.007545
-0.015158
-0.018964
-0.007545
-0.011351
-0.007545
0.003874
0.007681
0.000068
0.007681
0.019100
0.019100
0.015294
0.007681
-0.011351
-0.015158
-0.018964
-0.026577
-0.034190
-0.041803
-0.037997
-0.037997
-0.034190
-0.022771
0.049552
0.156133
0.217036
0.175165
0.080004
-0.117932
-0.285417
-0.220707
-0.102707
-0.106513
-0.079868
-0.030384
-0.015158
-0.015158
-0.018964
-0.022771
-0.018964
-0.011351
-0.003739
0.007681
0.015294
0.022907
0.022907
0.022907
0.030520
0.019100
0.019100
0.015294
0.015294
0.019100
0.000068
0.003874
-0.003739
0.011487
0.015294
0.022907
0.022907
0.034326
0.049552
0.057165
0.064778
0.057165
0.049552
0.049552
0.030520
0.022907
0.015294
0.000068
-0.003739
-0.003739
0.003874
0.007681
0.011487
0.015294
0.034326
0.026713
0.022907
0.022907
0.026713
0.022907
0.034326
0.022907
0.019100
0.007681
0.000068
-0.007545
-0.007545
-0.003739
0.007681
0.026713
0.038133
0.030520
0.026713
0.022907
0.022907
0.015294
0.007681
0.007681
0.011487
-0.007545
-0.018964
0.000068
0.000068
-0.015158
-0.015158
-0.011351
-0.022771
-0.026577
-0.018964
0.007681
0.011487
0.000068
0.003874
0.003874
0.003874
0.000068
0.007681
-0.007545
-0.011351
-0.007545
-0.011351
-0.015158
-0.015158
0.000068
-0.018964
-0.011351
-0.011351
-0.007545
0.000068
0.000068
0.003874
0.000068
-0.011351
-0.018964
-0.011351
-0.011351
-0.026577
-0.015158
-0.026577
-0.030384
-0.007545
-0.003739
0.003874
0.011487
-0.003739
0.007681
0.007681
0.076197
0.152326
0.190391
0.140907
0.083810
-0.057029
-0.201675
-0.148384
-0.129352
-0.152191
-0.106513
-0.037997
-0.022771
-0.018964
-0.018964
-0.022771
-0.030384
-0.018964
-0.015158
-0.007545
-0.018964
-0.018964
-0.007545
-0.015158
-0.011351
-0.007545
-0.007545
0.000068
0.000068
0.015294
0.003874
-0.007545
-0.011351
-0.011351
-0.011351
-0.011351
-0.007545
0.003874
0.015294
0.019100
0.019100
0.022907
0.019100
0.026713
0.019100
0.026713
0.011487
-0.007545
-0.018964
-0.037997
-0.041803
-0.034190
-0.030384
-0.022771
-0.011351
-0.007545
-0.007545
0.000068
0.011487
0.015294
0.011487
0.015294
0.019100
0.015294
0.003874
-0.011351
-0.011351
-0.015158
-0.011351
-0.011351
-0.011351
-0.003739
0.000068
0.000068
-0.011351
-0.011351
-0.003739
0.003874
-0.007545
-0.003739
-0.003739
-0.007545
-0.007545
-0.026577
-0.018964
-0.026577
-0.015158
-0.015158
-0.018964
-0.018964
0.026713
0.137101
0.220843
0.201810
0.137101
-0.007545
-0.247352
-0.235933
-0.117932
-0.125545
-0.106513
-0.041803
-0.015158
-0.007545
0.007681
0.003874
0.003874
0.000068
0.007681
0.022907
0.007681
0.003874
0.003874
0.007681
0.000068
0.003874
0.000068
0.003874
0.003874
0.011487
0.011487
0.015294
0.022907
0.034326
0.038133
0.041939
0.057165
0.060971
0.057165
0.053358
0.045745
0.049552
0.053358
0.045745
0.030520
0.022907
0.022907
0.022907
0.015294
0.015294
0.015294
0.007681
0.019100
0.011487
0.011487
0.019100
0.015294
0.011487
0.007681
0.007681
0.011487
0.011487
0.007681
0.007681
0.007681
0.007681
0.011487
0.011487
0.007681
0.003874
-0.007545
-0.011351
0.000068
0.003874
0.000068
0.011487
0.068584
0.133294
0.159939
0.137101
0.053358
-0.152191
-0.254965
-0.117932
-0.098900
-0.133158
-0.068448
-0.018964
-0.003739
-0.007545
-0.011351
-0.007545
0.003874
0.003874
0.015294
0.034326
0.038133
0.041939
0.041939
0.030520
0.019100
-0.011351
-0.011351
-0.011351
-0.026577
-0.018964
-0.026577
-0.018964
-0.011351
-0.015158
-0.003739
0.011487
0.041939
0.064778
0.072391
0.080004
0.083810
0.064778
0.049552
0.038133
0.026713
0.011487
-0.003739
-0.015158
-0.011351
-0.011351
-0.011351
0.007681
0.007681
0.026713
0.030520
0.038133
0.034326
0.026713
0.015294
0.019100
0.015294
0.015294
0.011487
0.003874
-0.003739
-0.011351
-0.015158
0.000068
0.003874
0.003874
0.007681
-0.003739
0.003874
0.003874
0.011487
0.003874
0.007681
0.064778
0.129488
0.156133
0.144713
0.034326
-0.178836
-0.281610
-0.144578
-0.117932
-0.136965
-0.068448
-0.015158
-0.003739
-0.003739
-0.007545
-0.011351
0.000068
-0.011351
-0.011351
-0.003739
-0.011351
0.003874
-0.003739
-0.015158
-0.011351
-0.015158
-0.015158
-0.018964
-0.018964
-0.018964
-0.007545
-0.015158
-0.007545
0.003874
-0.011351
-0.034190
-0.026577
-0.015158
-0.003739
0.007681
-0.003739
0.019100
0.022907
0.015294
0.011487
0.007681
-0.003739
0.000068
0.000068
0.007681
-0.003739
-0.007545
-0.011351
-0.026577
-0.030384
-0.034190
-0.034190
-0.030384
-0.030384
-0.015158
-0.007545
-0.007545
-0.011351
-0.003739
0.000068
-0.011351
-0.022771
-0.003739
0.007681
-0.015158
-0.022771
-0.034190
-0.034190
-0.037997
-0.041803
-0.045610
-0.045610
-0.037997
-0.037997
-0.026577
-0.015158
-0.015158
-0.015158
0.030520
0.125681
0.201810
0.182778
0.125681
-0.064642
-0.300643
-0.308256
-0.159804
-0.155997
-0.136965
-0.072255
-0.018964
-0.011351
-0.007545
0.000068
0.003874
0.015294
0.022907
0.026713
0.022907
0.015294
0.007681
0.003874
0.015294
0.011487
0.007681
0.000068
0.000068
0.003874
0.011487
0.015294
0.022907
0.022907
0.022907
0.034326
0.030520
0.045745
0.053358
0.049552
0.053358
0.064778
0.049552
0.057165
0.038133
0.038133
0.030520
0.030520
0.030520
0.034326
0.030520
0.022907
0.019100
0.026713
0.034326
0.022907
0.026713
0.030520
0.026713
0.030520
0.022907
0.019100
0.019100
0.022907
0.026713
0.026713
0.026713
0.019100
0.030520
0.030520
0.041939
0.038133
0.038133
0.026713
0.015294
0.007681
0.011487
0.011487
0.003874
0.000068
-0.015158
-0.015158
-0.018964
-0.022771
-0.018964
0.000068
0.000068
0.011487
0.015294
0.022907
0.015294
0.011487
0.000068
0.000068
-0.003739
-0.003739
-0.011351
-0.018964
-0.022771
-0.034190
-0.037997
-0.045610
-0.034190
-0.015158
-0.007545
0.000068
0.007681
0.015294
0.003874
0.003874
-0.003739
0.041939
0.125681
0.186585
0.156133
0.114262
-0.041803
-0.243546
-0.209288
-0.117932
-0.114126
-0.091287
-0.022771
0.007681
0.011487
0.003874
0.000068
0.000068
0.000068
-0.003739
-0.011351
-0.015158
-0.018964
-0.022771
-0.026577
-0.018964
-0.007545
0.007681
0.019100
0.019100
0.026713
0.026713
0.019100
0.019100
0.007681
-0.003739
-0.007545
-0.007545
-0.007545
0.000068
0.003874
0.015294
0.026713
0.030520
0.030520
0.026713
0.034326
0.045745
0.041939
0.034326
0.030520
0.019100
0.007681
-0.003739
-0.015158
-0.015158
0.000068
-0.007545
-0.007545
0.003874
0.003874
0.015294
0.019100
0.034326
0.106649
0.209423
0.262714
0.251294
0.099036
-0.068448
-0.194062
-0.102707
-0.098900
-0.083674
-0.049416
-0.015158
-0.018964
-0.022771
-0.018964
-0.018964
-0.003739
0.003874
0.000068
0.000068
0.000068
-0.003739
-0.015158
-0.022771
-0.030384
-0.041803
-0.049416
-0.057029
-0.060836
-0.057029
-0.041803
-0.041803
-0.041803
-0.041803
-0.030384
-0.026577
-0.022771
-0.011351
-0.011351
0.015294
0.011487
0.007681
0.011487
0.007681
-0.003739
-0.015158
-0.026577
-0.018964
-0.022771
-0.011351
-0.011351
-0.022771
-0.015158
-0.007545
-0.018964
-0.018964
-0.018964
-0.015158
-0.011351
-0.011351
-0.015158
-0.015158
-0.011351
-0.011351
-0.011351
-0.003739
0.000068
0.000068
-0.011351
-0.026577
-0.037997
-0.034190
-0.034190
-0.026577
-0.030384
-0.034190
-0.037997
-0.037997
-0.037997
-0.034190
-0.026577
-0.018964
-0.015158
-0.022771
-0.022771
-0.018964
-0.022771
-0.022771
-0.026577
-0.015158
-0.018964
-0.026577
-0.030384
-0.026577
-0.026577
-0.018964
-0.011351
-0.011351
0.007681
0.102842
0.190391
0.228456
0.178972
0.053358
-0.159804
-0.270191
-0.167416
-0.110320
-0.095094
-0.041803
-0.007545
0.007681
0.011487
0.003874
0.003874
0.015294
0.011487
0.026713
0.030520
0.011487
0.015294
0.022907
0.019100
0.019100
0.019100
0.019100
0.026713
0.026713
0.026713
0.030520
0.030520
0.041939
0.030520
0.026713
0.019100
0.019100
0.019100
0.034326
0.041939
0.045745
0.057165
0.049552
0.038133
0.026713
0.022907
0.011487
0.011487
0.019100
0.015294
0.022907
0.019100
0.011487
0.000068
0.000068
-0.011351
0.019100
0.011487
0.022907
0.026713
0.034326
0.053358
0.049552
0.057165
0.038133
0.030520
0.019100
0.022907
0.015294
0.026713
0.011487
0.011487
-0.003739
0.003874
-0.015158
-0.011351
-0.015158
-0.011351
-0.007545
-0.015158
-0.003739
0.022907
0.091423
0.178972
0.201810
0.137101
0.053358
-0.117932
-0.186449
-0.087481
-0.079868
-0.121739
-0.079868
-0.022771
-0.018964
-0.022771
-0.030384
-0.034190
-0.015158
-0.011351
-0.003739
0.000068
-0.015158
-0.003739
-0.011351
-0.003739
-0.003739
-0.003739
-0.003739
0.000068
-0.007545
-0.003739
-0.007545
-0.018964
-0.015158
0.000068
0.022907
0.041939
0.053358
0.045745
0.053358
0.064778
0.060971
0.057165
0.045745
0.030520
0.030520
0.019100
0.019100
0.007681
0.000068
-0.011351
0.000068
0.011487
0.030520
0.041939
0.034326
0.019100
0.019100
0.015294
0.022907
0.007681
0.011487
0.011487
0.015294
0.007681
0.015294
0.011487
0.007681
0.000068
0.015294
0.026713
0.026713
0.022907
0.019100
0.011487
0.022907
0.015294
0.011487
0.003874
-0.007545
-0.011351
-0.011351
-0.007545
-0.003739
-0.011351
-0.015158
-0.018964
-0.007545
0.007681
0.003874
-0.003739
-0.015158
-0.030384
-0.026577
-0.034190
-0.041803
-0.045610
-0.022771
-0.018964
-0.011351
0.003874
0.007681
0.003874
0.007681
-0.003739
0.000068
0.007681
0.003874
-0.007545
0.000068
-0.007545
-0.018964
-0.030384
-0.045610
-0.064642
-0.072255
-0.072255
-0.060836
-0.037997
-0.022771
0.000068
0.011487
0.003874
0.003874
0.000068
0.000068
-0.007545
0.003874
-0.003739
-0.003739
-0.011351
0.049552
0.133294
0.190391
0.182778
0.121875
-0.102707
-0.327288
-0.331094
-0.190255
-0.144578
-0.072255
-0.022771
-0.003739
0.000068
0.003874
0.003874
0.003874
-0.003739
-0.018964
-0.018964
-0.018964
-0.026577
-0.030384
-0.018964
-0.007545
-0.007545
0.003874
0.015294
0.019100
0.022907
0.026713
0.015294
0.015294
0.007681
0.000068
0.000068
0.007681
0.003874
0.011487
0.015294
0.011487
-0.015158
0.000068
0.011487
0.015294
0.007681
-0.003739
0.011487
0.003874
0.007681
0.000068
0.000068
-0.003739
-0.003739
-0.015158
-0.015158
-0.015158
-0.015158
-0.030384
-0.034190
-0.037997
-0.018964
-0.015158
0.007681
0.015294
0.003874
0.003874
0.095229
0.217036
0.266520
0.190391
0.000068
-0.175029
-0.201675
-0.068448
-0.072255
-0.110320
-0.064642
-0.049416
-0.057029
-0.045610
-0.037997
-0.037997
-0.030384
-0.034190
-0.037997
-0.026577
-0.026577
-0.018964
-0.015158
-0.022771
-0.011351
-0.011351
-0.011351
-0.022771
-0.037997
-0.030384
-0.022771
-0.037997
-0.057029
-0.079868
-0.068448
-0.053223
-0.037997
-0.030384
-0.022771
0.003874
0.015294
0.038133
0.041939
0.041939
0.030520
0.034326
0.022907
0.026713
0.038133
0.034326
0.030520
0.011487
0.003874
-0.011351
-0.011351
0.003874
0.011487
0.022907
0.034326
0.038133
0.049552
0.057165
0.041939
0.057165
0.053358
0.034326
0.038133
0.049552
0.034326
0.022907
0.011487
0.003874
0.003874
0.015294
0.019100
0.022907
0.030520
0.030520
0.034326
0.019100
0.030520
0.019100
0.003874
0.007681
0.007681
0.000068
0.000068
0.003874
-0.007545
-0.015158
-0.011351
-0.007545
0.007681
0.000068
0.011487
0.015294
0.011487
0.019100
0.000068
0.015294
0.011487
0.000068
0.000068
0.007681
0.000068
0.030520
0.129488
0.209423
0.182778
0.140907
-0.007545
-0.167416
-0.171223
-0.079868
-0.102707
-0.087481
-0.022771
-0.007545
0.011487
0.000068
0.003874
-0.007545
-0.007545
-0.011351
0.003874
-0.015158
-0.018964
-0.007545
-0.015158
-0.007545
-0.007545
-0.015158
-0.011351
0.000068
0.000068
0.003874
0.003874
0.003874
0.003874
0.003874
0.007681
-0.007545
-0.007545
-0.003739
-0.003739
0.007681
0.007681
0.019100
0.019100
0.015294
0.015294
0.015294
0.011487
0.015294
0.011487
0.011487
0.000068
0.000068
-0.011351
-0.011351
-0.007545
-0.007545
-0.007545
0.000068
0.007681
0.019100
0.026713
0.026713
0.034326
0.038133
0.045745
0.041939
0.026713
0.019100
0.003874
0.000068
0.007681
0.003874
-0.007545
-0.003739
-0.018964
-0.015158
-0.011351
-0.011351
0.003874
0.007681
0.019100
0.015294
0.003874
0.007681
0.045745
0.140907
0.205617
0.182778
0.102842
-0.098900
-0.334901
-0.323481
-0.171223
-0.152191
-0.098900
-0.026577
0.003874
0.019100
0.011487
0.007681
0.007681
0.011487
0.011487
0.003874
0.015294
0.007681
0.007681
0.011487
0.007681
-0.003739
-0.003739
0.011487
0.003874
0.011487
0.019100
0.038133
0.019100
0.022907
0.003874
0.007681
0.015294
0.011487
0.034326
0.034326
0.034326
0.030520
0.026713
0.026713
0.011487
0.007681
0.003874
0.011487
0.000068
-0.018964
-0.015158
-0.018964
-0.030384
-0.018964
-0.022771
-0.011351
-0.015158
0.003874
0.000068
0.011487
0.007681
0.007681
0.007681
0.007681
0.003874
0.000068
0.000068
-0.003739
-0.007545
-0.018964
-0.026577
-0.022771
-0.026577
-0.015158
-0.018964
-0.018964
-0.007545
0.038133
0.114262
0.198004
0.190391
0.095229
-0.091287
-0.277804
-0.182642
-0.102707
-0.133158
-0.110320
-0.045610
-0.037997
-0.037997
-0.030384
-0.041803
-0.030384
-0.034190
-0.022771
-0.011351
0.000068
0.015294
0.019100
0.019100
0.041939
0.030520
0.007681
0.011487
0.000068
-0.003739
-0.018964
-0.022771
-0.030384
-0.034190
-0.026577
-0.018964
-0.018964
-0.007545
0.007681
0.038133
0.049552
0.060971
0.068584
0.049552
0.030520
0.019100
0.011487
0.000068
-0.003739
-0.003739
-0.011351
-0.018964
-0.007545
-0.007545
-0.015158
-0.003739
0.007681
0.019100
0.030520
0.041939
0.049552
0.053358
0.034326
0.011487
0.007681
-0.003739
-0.011351
-0.011351
-0.015158
0.000068
-0.011351
-0.026577
0.019100
0.133294
0.194197
0.156133
0.041939
-0.098900
-0.296836
-0.228320
-0.068448
-0.079868
-0.098900
-0.034190
-0.030384
-0.037997
-0.026577
-0.022771
-0.011351
-0.015158
-0.015158
-0.011351
-0.022771
-0.011351
-0.003739
0.003874
0.007681
0.003874
-0.007545
-0.007545
-0.018964
-0.022771
-0.026577
-0.034190
-0.022771
-0.030384
-0.022771
-0.026577
-0.018964
-0.015158
0.007681
0.022907
0.038133
0.034326
0.022907
0.011487
0.003874
-0.003739
-0.015158
-0.022771
-0.011351
-0.003739
0.000068
-0.011351
-0.011351
-0.011351
-0.007545
0.007681
0.019100
0.019100
0.034326
0.030520
0.041939
0.030520
0.030520
0.034326
0.030520
0.022907
0.022907
0.026713
0.034326
0.038133
0.038133
0.026713
0.015294
0.015294
0.007681
0.007681
0.011487
0.007681
0.011487
0.015294
0.015294
0.019100
0.095229
0.175165
0.224649
0.190391
0.095229
-0.072255
-0.175029
-0.095094
-0.072255
-0.102707
-0.068448
-0.015158
-0.011351
-0.011351
-0.007545
-0.007545
-0.011351
0.003874
0.003874
0.007681
0.007681
0.011487
0.022907
0.026713
0.026713
0.011487
0.026713
0.026713
0.022907
0.007681
0.015294
0.011487
0.011487
0.003874
0.003874
0.003874
0.011487
0.019100
0.030520
0.038133
0.038133
0.030520
0.034326
0.030520
0.026713
0.034326
0.034326
0.019100
0.019100
0.007681
0.007681
0.003874
0.003874
0.011487
0.003874
0.015294
0.015294
0.000068
-0.007545
-0.018964
-0.003739
0.003874
0.026713
0.026713
0.026713
0.022907
0.030520
0.026713
0.022907
0.003874
0.003874
0.011487
0.003874
0.011487
-0.022771
-0.022771
-0.041803
-0.045610
-0.041803
-0.041803
-0.041803
-0.037997
-0.026577
-0.022771
-0.018964
-0.011351
0.000068
0.000068
0.000068
0.030520
0.148520
0.228456
0.194197
0.133294
0.011487
-0.178836
-0.228320
-0.140771
-0.167416
-0.182642
-0.110320
-0.060836
-0.034190
-0.030384
-0.018964
-0.011351
-0.003739
0.000068
0.003874
0.022907
-0.003739
0.000068
-0.011351
-0.007545
-0.015158
-0.022771
-0.026577
-0.030384
-0.030384
-0.022771
-0.022771
-0.018964
-0.003739
0.011487
0.022907
0.034326
0.038133
0.041939
0.038133
0.038133
0.030520
0.026713
0.026713
0.007681
0.007681
0.000068
0.007681
0.003874
0.000068
-0.003739
0.000068
0.011487
0.019100
0.022907
0.026713
0.019100
0.019100
0.019100
0.026713
0.011487
0.003874
0.007681
0.083810
0.194197
0.285553
0.289359
0.137101
-0.045610
-0.175029
-0.087481
-0.060836
-0.026577
0.022907
0.026713
0.022907
0.011487
0.030520
0.003874
0.000068
-0.018964
-0.015158
-0.011351
-0.007545
-0.007545
-0.011351
0.000068
0.003874
0.015294
0.015294
0.019100
0.003874
-0.003739
-0.015158
-0.022771
-0.030384
-0.037997
-0.034190
-0.034190
-0.037997
-0.030384
-0.018964
0.003874
0.015294
0.026713
0.030520
0.011487
0.019100
0.019100
0.019100
0.019100
0.022907
0.019100
0.007681
0.011487
0.011487
0.003874
0.000068
0.003874
0.000068
0.003874
-0.003739
0.015294
0.007681
0.015294
0.015294
0.003874
0.000068
-0.003739
-0.018964
-0.003739
-0.003739
0.000068
0.003874
0.000068
-0.007545
-0.007545
-0.011351
-0.022771
-0.030384
-0.030384
-0.018964
-0.026577
-0.034190
-0.018964
-0.034190
-0.041803
-0.026577
-0.030384
-0.022771
-0.015158
-0.003739
-0.003739
-0.022771
0.000068
-0.011351
-0.015158
-0.022771
-0.037997
-0.030384
-0.018964
-0.007545
-0.003739
-0.003739
-0.007545
-0.011351
-0.007545
-0.003739
0.000068
-0.007545
0.000068
0.041939
0.148520
0.232262
0.232262
0.156133
-0.060836
-0.315868
-0.357740
-0.209288
-0.171223
-0.114126
-0.060836
-0.022771
-0.018964
-0.018964
-0.011351
-0.015158
0.003874
-0.003739
0.019100
0.003874
-0.003739
-0.015158
-0.015158
-0.011351
-0.026577
-0.015158
-0.011351
-0.022771
-0.022771
-0.026577
-0.030384
-0.018964
-0.015158
-0.022771
-0.026577
-0.015158
-0.007545
0.000068
0.003874
-0.007545
0.007681
0.011487
0.011487
0.000068
0.003874
-0.003739
-0.011351
-0.011351
-0.026577
-0.037997
-0.034190
-0.034190
-0.037997
-0.030384
-0.022771
-0.022771
-0.007545
0.019100
0.019100
0.019100
0.000068
-0.007545
0.007681
0.007681
0.003874
0.003874
0.000068
0.019100
0.118068
0.224649
0.209423
0.080004
-0.098900
-0.293030
-0.293030
-0.136965
-0.148384
-0.121739
-0.053223
-0.022771
-0.026577
-0.011351
-0.007545
-0.011351
-0.003739
-0.026577
-0.030384
-0.034190
-0.030384
-0.030384
-0.037997
-0.030384
-0.037997
-0.053223
-0.049416
-0.049416
-0.049416
-0.045610
-0.026577
-0.003739
0.003874
0.011487
0.015294
0.011487
0.030520
0.034326
0.045745
0.057165
0.060971
0.064778
0.041939
0.038133
0.026713
0.015294
0.022907
0.022907
0.030520
0.049552
0.060971
0.053358
0.053358
0.038133
0.068584
0.060971
0.060971
0.060971
0.064778
0.060971
0.060971
0.060971
0.045745
0.038133
0.030520
0.022907
0.034326
0.053358
0.060971
0.057165
0.053358
0.030520
0.026713
0.030520
0.022907
0.026713
0.026713
0.019100
0.022907
0.026713
0.019100
0.011487
0.026713
0.019100
0.022907
0.026713
0.026713
0.019100
0.015294
0.011487
0.007681
0.003874
0.007681
0.003874
0.011487
0.011487
0.003874
0.003874
0.019100
0.015294
0.015294
0.015294
0.003874
0.011487
0.000068
0.019100
0.011487
-0.003739
-0.003739
-0.007545
-0.015158
-0.007545
-0.015158
0.038133
0.137101
0.201810
0.159939
0.133294
0.003874
-0.136965
-0.098900
-0.060836
-0.095094
-0.087481
-0.022771
-0.007545
-0.022771
-0.030384
-0.034190
-0.037997
-0.041803
-0.030384
-0.022771
-0.026577
-0.034190
-0.030384
-0.026577
-0.018964
-0.011351
0.000068
0.000068
0.007681
0.011487
0.003874
-0.007545
-0.022771
-0.034190
-0.034190
-0.026577
-0.018964
-0.011351
0.003874
0.022907
0.034326
0.049552
0.060971
0.068584
0.072391
0.064778
0.057165
0.041939
0.022907
0.003874
-0.003739
-0.011351
-0.018964
-0.022771
-0.022771
-0.003739
0.003874
0.007681
0.022907
0.045745
0.064778
0.076197
0.087617
0.087617
0.099036
0.072391
0.045745
0.038133
0.026713
0.011487
0.000068
-0.011351
-0.003739
0.045745
0.110455
0.129488
0.125681
0.007681
-0.182642
-0.220707
-0.041803
-0.022771
-0.026577
0.041939
0.049552
0.041939
0.034326
0.011487
-0.003739
-0.011351
-0.018964
-0.018964
-0.026577
-0.034190
-0.011351
-0.003739
-0.003739
0.015294
0.007681
0.015294
0.022907
0.034326
0.038133
0.026713
0.015294
-0.003739
-0.011351
-0.026577
-0.041803
-0.037997
-0.045610
-0.022771
-0.034190
-0.007545
0.000068
0.019100
-0.007545
0.003874
0.011487
0.015294
0.026713
0.030520
0.019100
0.022907
0.007681
-0.003739
-0.011351
-0.011351
-0.037997
-0.041803
-0.037997
-0.037997
-0.037997
-0.030384
-0.030384
-0.041803
-0.018964
-0.007545
0.007681
0.080004
0.198004
0.258907
0.201810
-0.011351
-0.194062
-0.331094
-0.213094
-0.114126
-0.152191
-0.114126
-0.060836
-0.053223
-0.045610
-0.049416
-0.041803
-0.022771
-0.022771
-0.026577
-0.007545
0.003874
0.007681
0.003874
-0.022771
-0.018964
-0.037997
-0.037997
-0.037997
-0.049416
-0.053223
-0.049416
-0.072255
-0.064642
-0.072255
-0.068448
-0.064642
-0.068448
-0.041803
-0.018964
0.019100
0.030520
0.007681
0.011487
-0.015158
-0.026577
-0.041803
-0.053223
-0.041803
-0.053223
-0.053223
-0.072255
-0.060836
-0.060836
-0.053223
-0.053223
-0.045610
-0.026577
-0.007545
0.007681
0.011487
0.019100
0.011487
0.007681
-0.011351
-0.022771
-0.037997
-0.037997
-0.030384
-0.022771
-0.030384
-0.053223
-0.057029
-0.053223
-0.049416
-0.041803
-0.045610
-0.037997
-0.041803
-0.026577
-0.026577
-0.022771
-0.034190
-0.030384
-0.007545
-0.018964
-0.003739
0.003874
0.007681
0.015294
0.011487
0.007681
0.003874
0.019100
0.019100
0.030520
0.034326
0.045745
0.099036
0.194197
0.255101
0.217036
0.159939
0.022907
-0.171223
-0.159804
-0.064642
-0.064642
-0.068448
-0.011351
0.011487
0.003874
0.003874
0.007681
0.003874
0.022907
0.026713
0.041939
0.026713
0.041939
0.045745
0.034326
0.049552
0.041939
0.041939
0.049552
0.049552
0.057165
0.034326
0.015294
0.007681
0.019100
0.000068
0.000068
0.007681
0.011487
0.026713
0.038133
0.057165
0.064778
0.068584
0.072391
0.057165
0.057165
0.057165
0.038133
0.030520
0.030520
0.019100
0.022907
0.007681
0.011487
0.000068
0.000068
-0.026577
-0.026577
-0.018964
-0.003739
0.015294
0.026713
0.038133
0.049552
0.057165
0.049552
0.045745
0.053358
0.045745
0.049552
0.049552
0.038133
0.026713
0.022907
0.038133
0.095229
0.137101
0.083810
0.057165
-0.015158
-0.175029
-0.110320
-0.041803
-0.095094
-0.098900
-0.026577
0.007681
0.019100
0.026713
0.011487
0.015294
0.011487
0.003874
0.000068
-0.003739
-0.007545
-0.007545
-0.018964
-0.018964
-0.018964
-0.003739
0.003874
0.011487
0.011487
0.026713
0.026713
0.030520
0.022907
0.022907
0.026713
0.030520
0.034326
0.034326
0.049552
0.057165
0.057165
0.057165
0.030520
0.015294
0.011487
0.011487
0.015294
0.011487
0.011487
0.000068
-0.011351
-0.011351
-0.018964
-0.011351
-0.003739
0.003874
0.015294
0.015294
0.022907
0.026713
0.019100
0.007681
0.011487
0.015294
0.022907
0.011487
0.003874
0.000068
-0.007545
-0.007545
0.003874
-0.015158
-0.007545
0.000068
0.068584
0.152326
0.186585
0.175165
0.041939
-0.194062
-0.304449
-0.178836
-0.125545
-0.144578
-0.068448
-0.030384
-0.015158
-0.015158
-0.011351
-0.011351
-0.007545
0.000068
0.007681
0.003874
-0.003739
-0.018964
-0.018964
-0.030384
-0.034190
-0.022771
-0.030384
-0.034190
-0.041803
-0.037997
-0.030384
-0.026577
-0.018964
-0.003739
0.007681
0.015294
0.022907
0.011487
0.007681
0.011487
0.026713
0.015294
0.007681
0.000068
-0.018964
-0.030384
-0.022771
-0.022771
-0.022771
-0.018964
-0.015158
-0.018964
-0.007545
0.000068
-0.003739
0.000068
-0.007545
-0.011351
0.000068
0.007681
0.000068
0.003874
0.007681
0.007681
-0.003739
-0.018964
-0.026577
-0.037997
-0.034190
-0.037997
-0.011351
0.000068
-0.007545
-0.018964
-0.034190
-0.034190
-0.022771
-0.030384
-0.018964
-0.015158
-0.018964
0.030520
0.137101
0.201810
0.182778
0.076197
-0.117932
-0.353933
-0.296836
-0.171223
-0.155997
-0.133158
-0.060836
-0.049416
-0.041803
-0.034190
-0.034190
-0.018964
-0.015158
-0.022771
-0.034190
-0.026577
-0.026577
-0.018964
-0.026577
-0.015158
-0.015158
-0.018964
0.003874
-0.003739
-0.011351
-0.022771
-0.030384
-0.030384
-0.045610
-0.041803
-0.049416
-0.034190
-0.026577
-0.015158
-0.003739
0.003874
0.015294
0.026713
0.026713
0.022907
0.019100
0.003874
-0.011351
-0.026577
-0.026577
-0.026577
-0.030384
-0.034190
-0.030384
-0.041803
-0.045610
-0.041803
-0.003739
-0.003739
0.015294
0.030520
0.038133
0.026713
0.038133
0.030520
0.034326
0.041939
0.038133
0.041939
0.041939
0.038133
0.038133
0.034326
0.038133
0.038133
0.038133
0.053358
0.049552
0.080004
0.125681
0.190391
0.167552
0.114262
-0.030384
-0.205481
-0.140771
-0.076061
-0.098900
-0.091287
-0.018964
0.011487
0.019100
0.038133
0.053358
0.057165
0.060971
0.049552
0.038133
0.041939
0.030520
0.019100
0.015294
0.019100
0.007681
0.003874
0.022907
0.000068
-0.007545
0.000068
0.000068
0.015294
0.019100
0.030520
0.030520
0.045745
0.045745
0.045745
0.045745
0.041939
0.041939
0.026713
0.011487
0.019100
0.022907
0.003874
0.011487
0.011487
-0.003739
0.011487
0.011487
0.011487
0.019100
0.057165
0.045745
0.041939
0.049552
0.026713
0.022907
0.011487
0.015294
0.007681
-0.007545
-0.003739
-0.018964
-0.007545
-0.015158
-0.015158
0.003874
-0.011351
0.007681
0.022907
0.034326
0.026713
0.022907
0.007681
0.000068
-0.003739
-0.018964
-0.022771
-0.030384
-0.034190
-0.037997
-0.041803
-0.034190
-0.022771
-0.003739
0.003874
0.019100
0.022907
0.049552
0.125681
0.224649
0.232262
0.175165
0.053358
-0.144578
-0.235933
-0.167416
-0.136965
-0.155997
-0.087481
-0.034190
-0.030384
-0.015158
0.000068
0.007681
0.019100
0.019100
0.034326
0.034326
0.026713
0.022907
0.015294
0.015294
0.011487
0.007681
0.007681
0.000068
0.000068
0.007681
0.007681
0.019100
0.019100
0.019100
0.026713
0.026713
0.038133
0.053358
0.053358
0.060971
0.060971
0.041939
0.038133
0.026713
0.007681
-0.003739
0.000068
0.000068
0.000068
0.003874
0.007681
0.019100
0.015294
0.019100
0.026713
0.038133
0.015294
0.022907
0.022907
0.022907
0.015294
0.011487
0.000068
0.000068
0.003874
0.000068
0.003874
0.015294
0.011487
0.015294
0.000068
0.015294
0.007681
0.000068
-0.007545
-0.003739
-0.015158
-0.018964
-0.030384
-0.026577
-0.022771
0.026713
0.118068
0.220843
0.232262
0.159939
-0.068448
-0.338707
-0.327288
-0.167416
-0.159804
-0.121739
-0.045610
-0.015158
-0.030384
-0.022771
-0.030384
-0.026577
-0.011351
-0.007545
-0.011351
-0.011351
-0.022771
-0.022771
-0.022771
-0.011351
-0.018964
-0.015158
-0.026577
-0.022771
-0.026577
-0.018964
-0.011351
-0.003739
-0.007545
-0.007545
0.000068
-0.003739
0.000068
0.015294
0.007681
0.007681
0.007681
-0.003739
-0.003739
-0.018964
-0.015158
-0.018964
-0.022771
-0.007545
0.000068
-0.003739
0.000068
0.015294
-0.007545
-0.003739
-0.015158
-0.007545
-0.003739
-0.007545
-0.015158
-0.011351
-0.018964
-0.018964
-0.034190
-0.026577
-0.022771
-0.018964
-0.015158
-0.015158
-0.015158
-0.015158
-0.015158
-0.026577
-0.026577
-0.030384
-0.037997
-0.030384
-0.034190
-0.045610
-0.037997
-0.030384
-0.041803
-0.041803
-0.030384
-0.030384
-0.011351
-0.018964
-0.022771
-0.022771
-0.026577
-0.026577
-0.026577
-0.015158
-0.022771
-0.026577
-0.026577
-0.034190
-0.030384
-0.030384
-0.037997
-0.022771
0.068584
0.159939
0.213230
0.167552
0.011487
-0.235933
-0.369159
-0.285417
-0.186449
-0.152191
-0.076061
-0.030384
-0.007545
-0.007545
-0.011351
-0.007545
-0.007545
-0.003739
0.003874
0.011487
0.007681
0.000068
0.003874
-0.003739
0.015294
0.011487
0.019100
0.022907
0.022907
0.030520
0.034326
0.022907
0.030520
0.038133
0.034326
0.041939
0.038133
0.053358
0.064778
0.072391
0.068584
0.068584
0.068584
0.080004
0.053358
0.041939
0.034326
0.026713
0.034326
0.026713
0.026713
0.034326
0.038133
0.045745
0.049552
0.049552
0.030520
0.045745
0.060971
0.068584
0.060971
0.041939
0.053358
0.022907
0.026713
0.000068
0.011487
0.011487
0.026713
0.038133
0.034326
0.030520
0.026713
0.022907
0.011487
0.015294
0.011487
0.003874
0.022907
0.015294
0.003874
0.003874
0.000068
-0.007545
0.000068
0.019100
-0.015158
-0.011351
-0.015158
-0.018964
-0.007545
-0.003739
0.000068
0.007681
0.015294
0.034326
0.121875
0.186585
0.167552
0.133294
0.022907
-0.159804
-0.175029
-0.102707
-0.129352
-0.117932
-0.049416
-0.018964
-0.007545
0.000068
-0.003739
0.011487
0.003874
0.011487
0.000068
-0.011351
-0.007545
0.000068
0.003874
0.011487
0.003874
0.007681
0.011487
0.015294
0.026713
0.022907
0.011487
0.019100
0.011487
0.000068
-0.007545
-0.007545
-0.003739
0.000068
0.007681
0.026713
0.038133
0.041939
0.030520
0.019100
0.015294
0.015294
0.019100
0.015294
0.019100
0.015294
0.022907
0.011487
0.000068
-0.018964
-0.018964
-0.018964
-0.026577
-0.026577
-0.022771
-0.015158
-0.015158
-0.011351
-0.007545
0.003874
0.007681
0.011487
0.022907
0.022907
0.019100
0.015294
0.015294
0.007681
-0.011351
-0.015158
-0.022771
-0.026577
-0.026577
-0.026577
-0.041803
-0.045610
0.015294
0.118068
0.209423
0.194197
0.129488
-0.068448
-0.304449
-0.262578
-0.125545
-0.106513
-0.076061
-0.022771
-0.007545
-0.015158
-0.015158
-0.011351
-0.015158
-0.015158
-0.026577
-0.022771
-0.018964
-0.003739
0.000068
0.003874
0.019100
0.011487
0.019100
0.038133
0.038133
0.053358
0.057165
0.041939
0.019100
0.003874
0.003874
0.003874
0.007681
0.007681
0.007681
0.015294
0.022907
0.019100
0.022907
0.022907
0.026713
0.026713
0.026713
0.026713
0.030520
0.026713
0.011487
0.000068
-0.011351
0.000068
0.007681
-0.007545
-0.011351
-0.011351
-0.015158
-0.007545
-0.003739
0.003874
0.011487
0.011487
0.034326
0.045745
0.038133
0.026713
0.022907
0.011487
0.011487
0.076197
0.159939
0.171359
0.099036
-0.053223
-0.247352
-0.334901
-0.163610
-0.102707
-0.125545
-0.053223
-0.003739
0.019100
0.019100
0.034326
0.011487
0.003874
0.000068
-0.011351
-0.011351
-0.015158
-0.015158
-0.018964
-0.015158
-0.018964
-0.015158
-0.018964
-0.011351
-0.003739
0.003874
0.007681
0.011487
0.026713
0.022907
0.022907
0.015294
0.015294
0.015294
0.015294
0.022907
0.038133
0.030520
0.011487
0.007681
0.007681
0.000068
0.003874
0.000068
0.011487
0.007681
0.003874
0.011487
0.015294
0.011487
0.015294
0.011487
0.015294
0.022907
0.019100
0.026713
0.019100
0.015294
0.011487
0.000068
0.003874
0.011487
0.015294
0.011487
0.011487
0.019100
0.022907
0.007681
-0.007545
0.022907
0.091423
0.163746
0.137101
0.114262
-0.041803
-0.262578
-0.258772
-0.110320
-0.117932
-0.121739
-0.034190
0.003874
0.015294
0.026713
0.011487
0.015294
0.015294
0.007681
0.003874
0.003874
0.011487
0.007681
0.007681
0.003874
0.000068
0.011487
0.000068
0.000068
0.019100
0.030520
0.022907
0.011487
0.003874
0.007681
0.000068
0.007681
0.007681
0.011487
0.022907
0.030520
0.041939
0.049552
0.041939
0.022907
0.022907
0.022907
0.015294
0.015294
0.011487
0.011487
0.011487
0.019100
0.007681
0.000068
-0.007545
-0.003739
0.000068
-0.003739
-0.003739
0.007681
0.019100
0.022907
0.015294
0.007681
0.015294
0.007681
0.011487
0.015294
0.000068
-0.007545
-0.011351
-0.018964
-0.026577
-0.034190
-0.026577
-0.037997
-0.030384
-0.022771
-0.022771
-0.015158
-0.011351
-0.003739
0.000068
0.003874
-0.003739
-0.007545
-0.007545
-0.007545
-0.015158
-0.018964
-0.026577
-0.030384
-0.030384
-0.034190
0.003874
0.102842
0.201810
0.217036
0.171359
-0.018964
-0.270191
-0.346320
-0.213094
-0.155997
-0.133158
-0.064642
-0.034190
-0.018964
-0.018964
-0.026577
-0.034190
-0.026577
-0.018964
-0.015158
-0.022771
-0.026577
-0.022771
-0.015158
-0.011351
-0.007545
-0.011351
-0.022771
-0.018964
-0.018964
-0.003739
-0.003739
-0.011351
-0.011351
-0.026577
-0.022771
-0.030384
-0.030384
-0.011351
0.003874
0.022907
0.019100
0.022907
0.015294
0.007681
0.000068
-0.007545
-0.007545
-0.015158
-0.022771
-0.026577
-0.018964
-0.018964
-0.018964
-0.018964
-0.015158
-0.018964
-0.007545
0.000068
0.015294
0.022907
0.015294
0.015294
0.019100
0.019100
0.026713
0.022907
0.003874
0.011487
0.007681
0.003874
0.007681
0.022907
0.102842
0.171359
0.167552
0.110455
0.000068
-0.190255
-0.197868
-0.068448
-0.057029
-0.091287
-0.026577
-0.003739
0.003874
0.011487
0.003874
0.000068
0.003874
0.011487
0.015294
