0.032027
0.042697
0.053366
0.053366
0.042697
0.053366
0.053366
0.053366
0.064036
0.064036
0.053366
0.053366
0.149393
0.160063
0.074706
-0.288062
-0.533464
-0.330741
-0.128018
-0.138687
-0.117348
-0.031991
0.021357
0.032027
0.085375
0.074706
0.074706
0.064036
0.053366
0.053366
0.032027
0.042697
0.032027
0.021357
0.021357
0.010688
0.010688
-0.010652
-0.010652
0.000018
-0.010652
-0.010652
-0.042661
-0.064000
-0.074669
-0.085339
-0.085339
-0.106678
-0.096009
-0.117348
-0.138687
-0.128018
-0.128018
-0.106678
-0.106678
-0.074669
-0.064000
-0.031991
-0.010652
0.010688
0.021357
0.032027
0.064036
0.042697
0.032027
0.042697
0.042697
0.042697
0.042697
0.042697
0.053366
0.074706
0.064036
0.064036
0.042697
0.064036
0.053366
0.032027
0.042697
0.032027
0.042697
0.021357
0.010688
-0.010652
0.021357
0.021357
0.042697
0.032027
0.021357
0.021357
0.021357
0.032027
0.032027
0.053366
0.032027
0.042697
0.032027
0.010688
0.021357
0.032027
0.032027
0.010688
0.032027
0.042697
0.021357
0.010688
0.010688
0.021357
0.032027
0.021357
0.021357
0.021357
0.000018
0.021357
0.021357
0.021357
0.074706
0.064036
0.074706
0.096045
0.085375
0.021357
-0.010652
-0.010652
0.010688
0.010688
-0.010652
0.000018
0.010688
-0.010652
0.000018
0.000018
0.010688
0.010688
0.032027
0.010688
0.021357
0.021357
0.021357
0.010688
0.010688
0.021357
0.160063
0.106715
-0.138687
-0.661500
-0.810875
-0.597482
-0.373420
-0.266723
-0.096009
-0.021321
0.010688
0.032027
0.042697
0.032027
0.021357
0.010688
0.032027
0.032027
0.042697
0.032027
0.032027
0.000018
0.010688
0.021357
0.000018
0.010688
0.021357
0.010688
-0.010652
0.000018
-0.010652
-0.010652
-0.010652
-0.031991
-0.042661
-0.042661
-0.031991
-0.064000
-0.085339
-0.064000
-0.053330
-0.053330
-0.053330
-0.021321
-0.021321
0.021357
0.021357
0.042697
0.042697
0.032027
0.042697
0.032027
0.042697
0.053366
0.053366
0.042697
0.021357
0.042697
0.032027
0.032027
0.032027
0.042697
0.042697
0.042697
0.042697
0.042697
0.053366
0.042697
0.032027
0.042697
0.010688
0.021357
0.010688
0.000018
0.000018
0.010688
0.032027
0.021357
0.010688
0.021357
0.000018
0.032027
0.032027
0.042697
0.021357
0.010688
0.000018
0.010688
0.000018
0.000018
0.021357
0.010688
0.021357
0.021357
0.021357
0.021357
0.010688
0.010688
0.021357
0.010688
0.010688
0.021357
0.032027
0.042697
0.064036
0.085375
0.096045
0.117384
0.106715
0.053366
0.010688
0.000018
0.010688
0.021357
0.021357
0.032027
0.021357
0.021357
0.021357
0.021357
0.032027
0.032027
0.000018
0.021357
0.010688
0.021357
0.010688
0.032027
0.021357
0.042697
0.160063
0.138724
0.042697
-0.490786
-0.714848
-0.544134
-0.384089
-0.288062
-0.138687
-0.031991
-0.010652
0.042697
0.064036
0.053366
0.053366
0.053366
0.053366
0.053366
0.032027
0.053366
0.053366
0.053366
0.032027
0.042697
0.021357
0.010688
0.032027
0.032027
0.032027
0.010688
-0.010652
-0.010652
-0.021321
-0.053330
-0.042661
-0.053330
-0.064000
-0.085339
-0.085339
-0.074669
-0.074669
-0.064000
-0.064000
-0.031991
-0.031991
0.000018
0.010688
0.032027
0.042697
0.021357
0.032027
0.042697
0.042697
0.032027
0.042697
0.042697
0.032027
0.042697
0.032027
0.021357
0.021357
0.032027
0.032027
0.000018
0.032027
0.000018
0.042697
0.042697
0.064036
0.032027
0.021357
0.010688
0.010688
0.021357
0.021357
0.010688
0.021357
0.032027
0.021357
0.021357
0.010688
0.032027
0.021357
0.010688
-0.010652
-0.010652
0.010688
0.021357
0.010688
0.053366
0.021357
0.032027
0.053366
0.021357
0.021357
0.021357
0.032027
0.021357
0.032027
0.000018
0.021357
0.010688
0.010688
0.021357
0.032027
0.053366
0.074706
0.074706
0.106715
0.074706
0.042697
0.010688
-0.010652
0.000018
-0.010652
0.000018
0.010688
0.021357
0.010688
0.021357
0.042697
0.010688
0.032027
0.032027
0.032027
0.032027
0.010688
0.021357
0.032027
0.032027
0.032027
0.170732
0.117384
-0.064000
-0.512125
-0.576143
-0.277393
-0.213375
-0.213375
-0.085339
-0.010652
0.010688
0.042697
0.064036
0.053366
0.042697
0.053366
0.064036
0.021357
0.010688
0.053366
0.010688
0.021357
0.021357
-0.010652
0.010688
0.000018
-0.010652
-0.010652
-0.031991
-0.042661
-0.064000
-0.042661
-0.064000
-0.074669
-0.085339
-0.117348
-0.106678
-0.128018
-0.106678
-0.138687
-0.106678
-0.106678
-0.064000
-0.053330
-0.042661
-0.021321
0.021357
0.021357
0.042697
0.053366
0.053366
0.042697
0.053366
0.042697
0.053366
0.064036
0.064036
0.064036
0.064036
0.053366
0.053366
0.042697
0.021357
0.053366
0.042697
0.021357
0.021357
0.021357
0.010688
0.000018
0.021357
0.032027
0.010688
0.021357
0.010688
0.021357
0.010688
0.032027
0.021357
0.021357
0.021357
0.021357
0.032027
0.032027
0.032027
0.021357
0.032027
0.032027
0.010688
0.021357
0.032027
0.053366
0.053366
0.042697
0.042697
0.021357
0.032027
0.021357
0.010688
0.032027
0.032027
0.042697
0.064036
0.074706
0.117384
0.096045
0.032027
-0.010652
0.010688
0.000018
-0.010652
0.000018
0.010688
0.042697
0.032027
0.042697
0.032027
0.064036
0.064036
0.053366
0.042697
0.032027
0.042697
0.042697
0.042697
0.032027
0.042697
0.181402
0.149393
0.032027
-0.416098
-0.586813
-0.373420
-0.245384
-0.202705
-0.128018
-0.010652
0.010688
0.032027
0.042697
0.032027
0.032027
0.042697
0.042697
0.042697
0.021357
0.053366
0.042697
0.042697
0.042697
0.032027
0.032027
0.010688
0.000018
0.000018
0.000018
-0.021321
-0.010652
-0.042661
-0.053330
-0.074669
-0.064000
-0.085339
-0.096009
-0.096009
-0.085339
-0.106678
-0.085339
-0.085339
-0.074669
-0.053330
-0.031991
-0.010652
0.010688
0.021357
0.032027
0.032027
0.053366
0.042697
0.042697
0.042697
0.042697
0.042697
0.032027
0.021357
0.032027
0.032027
0.021357
0.021357
0.010688
0.010688
0.021357
0.021357
0.032027
0.032027
0.021357
0.010688
0.021357
-0.010652
0.000018
0.010688
0.010688
0.032027
0.032027
0.021357
0.021357
0.000018
0.032027
0.021357
0.032027
0.021357
0.021357
0.010688
0.021357
0.021357
0.021357
0.021357
-0.010652
0.000018
0.010688
0.010688
0.021357
0.021357
0.021357
0.000018
0.010688
0.000018
-0.021321
-0.010652
0.000018
-0.010652
0.000018
0.032027
0.064036
0.096045
0.085375
0.074706
0.074706
0.032027
-0.021321
-0.021321
-0.021321
-0.010652
0.010688
0.010688
0.021357
0.021357
0.000018
0.000018
0.021357
0.010688
0.021357
0.021357
0.021357
0.010688
0.010688
0.021357
0.010688
0.032027
0.138724
0.117384
-0.149357
-0.597482
-0.714848
-0.522795
-0.330741
-0.234714
-0.074669
-0.021321
0.010688
0.042697
0.053366
0.053366
0.053366
0.053366
0.042697
0.032027
0.032027
0.032027
0.053366
0.032027
0.053366
0.021357
0.032027
0.010688
0.032027
0.010688
-0.010652
0.010688
-0.010652
0.000018
-0.021321
-0.021321
-0.031991
-0.042661
-0.042661
-0.064000
-0.064000
-0.096009
-0.074669
-0.042661
-0.042661
-0.031991
-0.021321
0.000018
0.021357
0.021357
0.032027
0.042697
0.021357
0.032027
0.021357
0.021357
0.042697
0.032027
0.010688
0.032027
0.032027
0.032027
0.042697
0.042697
0.053366
0.032027
0.032027
0.032027
0.021357
0.032027
0.032027
0.032027
0.021357
0.010688
0.042697
0.032027
0.010688
0.010688
0.021357
0.021357
0.021357
0.010688
0.021357
-0.010652
0.000018
-0.021321
0.000018
0.010688
0.000018
0.010688
0.010688
0.010688
0.010688
0.000018
0.000018
0.010688
0.010688
0.010688
0.021357
0.010688
0.010688
0.032027
0.042697
0.032027
0.010688
0.042697
0.042697
0.064036
0.096045
0.096045
0.074706
0.021357
0.000018
-0.010652
-0.010652
-0.010652
-0.010652
0.000018
0.010688
0.000018
0.000018
0.000018
0.010688
0.032027
0.042697
0.032027
0.032027
0.032027
0.010688
0.010688
0.010688
0.085375
0.138724
0.128054
-0.160027
-0.565473
-0.565473
-0.309402
-0.224045
-0.192036
-0.053330
0.000018
0.010688
0.021357
0.021357
0.042697
0.053366
0.042697
0.042697
0.042697
0.042697
0.042697
0.042697
0.042697
0.032027
0.032027
0.021357
0.021357
0.021357
-0.010652
-0.042661
-0.031991
-0.053330
-0.064000
-0.074669
-0.096009
-0.117348
-0.106678
-0.138687
-0.128018
-0.117348
-0.128018
-0.106678
-0.117348
-0.064000
-0.064000
-0.042661
-0.021321
0.021357
0.053366
0.042697
0.042697
0.074706
0.053366
0.064036
0.064036
0.074706
0.042697
0.042697
0.042697
0.053366
0.042697
0.042697
0.064036
0.053366
0.053366
0.053366
0.053366
0.042697
0.064036
0.021357
0.032027
0.053366
0.032027
0.032027
0.042697
0.021357
0.042697
0.032027
0.021357
0.053366
0.032027
0.053366
0.053366
0.042697
0.032027
0.042697
0.032027
0.042697
0.053366
0.064036
0.042697
0.074706
0.053366
0.053366
0.064036
0.053366
0.032027
0.032027
0.021357
0.021357
0.042697
0.085375
0.085375
0.096045
0.096045
0.064036
0.021357
0.000018
0.010688
0.000018
0.010688
0.010688
0.032027
0.032027
0.032027
0.053366
0.032027
0.021357
0.042697
0.042697
0.032027
0.021357
0.053366
0.042697
0.021357
0.032027
0.128054
0.149393
0.074706
-0.277393
-0.576143
-0.416098
-0.181366
-0.181366
-0.160027
-0.042661
-0.010652
0.021357
0.032027
0.064036
0.042697
0.074706
0.032027
0.042697
0.032027
0.032027
0.032027
0.021357
0.021357
0.010688
0.010688
0.010688
-0.010652
-0.010652
-0.010652
-0.042661
-0.042661
-0.053330
-0.042661
-0.053330
-0.085339
-0.085339
-0.085339
-0.106678
-0.117348
-0.117348
-0.128018
-0.096009
-0.096009
-0.053330
-0.042661
-0.021321
0.000018
0.010688
0.042697
0.053366
0.021357
0.053366
0.042697
0.053366
0.053366
0.074706
0.064036
0.053366
0.064036
0.053366
0.064036
0.053366
0.064036
0.053366
0.032027
0.042697
0.053366
0.042697
0.032027
0.032027
0.021357
0.010688
0.021357
0.021357
0.042697
0.000018
0.010688
0.021357
0.021357
0.021357
0.010688
0.032027
0.032027
0.042697
0.032027
0.010688
0.021357
0.010688
0.042697
0.032027
0.010688
0.032027
0.010688
0.021357
0.021357
0.021357
0.021357
0.021357
0.032027
0.010688
0.021357
0.021357
0.042697
0.010688
0.021357
0.053366
0.074706
0.074706
0.096045
0.096045
0.064036
0.010688
-0.010652
-0.010652
-0.010652
-0.010652
-0.010652
0.021357
0.021357
0.010688
0.000018
0.021357
0.010688
0.000018
0.010688
0.010688
0.000018
0.042697
0.021357
0.010688
0.000018
0.085375
0.138724
0.074706
-0.320071
-0.714848
-0.682840
-0.522795
-0.352080
-0.202705
-0.064000
0.000018
0.021357
0.032027
0.053366
0.064036
0.042697
0.042697
0.042697
0.032027
0.042697
0.053366
0.053366
0.053366
0.042697
0.021357
0.021357
0.021357
0.021357
0.010688
0.000018
-0.010652
-0.031991
-0.031991
-0.042661
-0.053330
-0.053330
-0.064000
-0.085339
-0.085339
-0.085339
-0.106678
-0.096009
-0.064000
-0.064000
-0.042661
-0.021321
0.021357
0.021357
0.021357
0.032027
0.053366
0.064036
0.064036
0.042697
0.053366
0.042697
0.032027
0.021357
0.042697
0.032027
0.032027
0.021357
0.042697
0.053366
0.021357
0.032027
0.032027
0.064036
0.042697
0.042697
0.021357
0.042697
0.053366
0.042697
0.032027
0.021357
0.021357
0.032027
0.021357
0.021357
0.021357
0.042697
0.032027
0.032027
0.021357
0.010688
0.021357
0.021357
0.021357
0.010688
0.010688
0.010688
0.032027
0.032027
0.010688
0.010688
0.021357
0.032027
0.042697
0.021357
0.032027
0.032027
0.021357
0.032027
0.053366
0.064036
0.085375
0.096045
0.064036
0.021357
0.010688
0.000018
0.000018
0.010688
0.010688
0.042697
0.032027
-0.010652
0.000018
0.021357
0.010688
0.000018
0.000018
0.010688
0.000018
0.021357
0.032027
0.021357
0.032027
0.170732
0.138724
0.064036
-0.448107
-0.725518
-0.576143
-0.405429
-0.298732
-0.149357
-0.021321
0.000018
0.053366
0.042697
0.042697
0.074706
0.042697
0.053366
0.053366
0.032027
0.042697
0.032027
0.032027
0.053366
0.032027
0.010688
-0.010652
0.021357
0.010688
0.010688
-0.010652
-0.010652
-0.010652
-0.053330
-0.053330
-0.064000
-0.064000
-0.096009
-0.128018
-0.106678
-0.128018
-0.106678
-0.106678
-0.106678
-0.096009
-0.042661
-0.031991
0.021357
0.021357
0.021357
0.053366
0.053366
0.064036
0.053366
0.053366
0.032027
0.064036
0.053366
0.053366
0.053366
0.064036
0.074706
0.053366
0.010688
0.042697
0.064036
0.042697
0.042697
0.053366
0.042697
0.064036
0.053366
0.042697
0.053366
0.021357
0.021357
0.042697
0.032027
0.042697
0.042697
0.021357
0.010688
0.010688
0.010688
0.021357
0.021357
0.021357
0.032027
0.042697
0.042697
0.021357
0.032027
0.032027
0.021357
0.042697
0.042697
0.053366
0.053366
0.021357
0.032027
0.042697
0.085375
0.074706
0.085375
0.096045
0.106715
0.042697
0.010688
-0.010652
0.010688
0.000018
0.021357
0.032027
0.032027
0.032027
0.021357
0.042697
0.021357
0.021357
0.032027
0.042697
0.032027
0.021357
0.010688
0.021357
0.021357
0.074706
0.170732
0.096045
-0.138687
-0.522795
-0.501455
-0.192036
-0.138687
-0.149357
-0.053330
0.021357
0.010688
0.032027
0.042697
0.053366
0.032027
0.042697
0.042697
0.032027
0.010688
0.032027
0.032027
0.042697
0.021357
-0.010652
0.010688
0.010688
0.000018
-0.010652
-0.021321
-0.021321
-0.053330
-0.064000
-0.064000
-0.117348
-0.106678
-0.117348
-0.117348
-0.117348
-0.138687
-0.128018
-0.128018
-0.106678
-0.096009
-0.074669
-0.053330
0.000018
0.021357
0.021357
0.032027
0.042697
0.053366
0.042697
0.053366
0.042697
0.053366
0.053366
0.064036
0.074706
0.085375
0.064036
0.064036
0.053366
0.074706
0.074706
0.064036
0.053366
0.032027
0.042697
0.053366
0.032027
0.032027
0.032027
0.021357
0.021357
0.032027
0.021357
0.032027
0.032027
0.021357
0.021357
0.042697
0.032027
0.042697
0.032027
0.032027
0.042697
0.042697
0.064036
0.042697
0.032027
0.021357
0.010688
0.021357
0.032027
0.010688
0.010688
0.021357
0.021357
0.032027
0.042697
0.042697
0.074706
0.085375
0.096045
0.096045
0.053366
0.000018
-0.010652
-0.021321
0.000018
0.000018
0.000018
0.021357
0.021357
0.021357
0.010688
0.021357
0.032027
0.010688
0.021357
0.021357
-0.010652
0.021357
0.010688
0.010688
0.021357
0.117384
0.149393
0.074706
-0.394759
-0.693509
-0.576143
-0.437438
-0.309402
-0.170696
-0.042661
0.000018
0.021357
0.010688
0.021357
0.032027
0.042697
0.042697
0.032027
0.042697
0.042697
0.032027
0.042697
0.042697
0.032027
0.032027
0.032027
0.010688
0.021357
0.010688
0.000018
0.000018
-0.010652
-0.021321
-0.074669
-0.064000
-0.053330
-0.085339
-0.096009
-0.096009
-0.096009
-0.074669
-0.085339
-0.064000
-0.064000
-0.042661
-0.010652
-0.010652
0.021357
0.032027
0.053366
0.021357
0.053366
0.053366
0.064036
0.074706
0.064036
0.042697
0.053366
0.064036
0.042697
0.021357
0.032027
0.042697
0.021357
0.042697
0.032027
0.042697
0.042697
0.021357
0.021357
0.010688
0.032027
0.021357
0.010688
0.032027
0.021357
0.042697
0.032027
0.032027
0.021357
0.021357
0.010688
0.042697
0.021357
0.021357
0.000018
0.000018
0.021357
0.000018
0.000018
0.010688
0.010688
0.021357
0.021357
0.032027
0.021357
0.021357
0.021357
0.010688
0.021357
0.032027
0.032027
0.021357
0.010688
0.021357
0.053366
0.032027
0.064036
0.074706
0.074706
0.032027
-0.010652
-0.021321
-0.021321
0.000018
-0.021321
0.000018
0.010688
0.010688
0.032027
0.010688
0.021357
0.032027
0.032027
0.032027
0.032027
0.032027
0.032027
0.053366
0.032027
0.053366
0.181402
0.138724
-0.064000
-0.576143
-0.746857
-0.533464
-0.341411
-0.234714
-0.085339
0.010688
0.021357
0.053366
0.064036
0.064036
0.053366
0.053366
0.053366
0.042697
0.042697
0.042697
0.042697
0.032027
0.053366
0.042697
0.032027
0.042697
0.032027
0.010688
-0.010652
0.000018
-0.010652
-0.021321
-0.021321
-0.053330
-0.053330
-0.053330
-0.053330
-0.064000
-0.085339
-0.085339
-0.096009
-0.085339
-0.042661
-0.042661
-0.010652
0.000018
0.021357
0.032027
0.021357
0.032027
0.021357
0.021357
0.042697
0.042697
0.042697
0.032027
0.032027
0.021357
0.042697
0.010688
0.010688
0.010688
0.000018
0.000018
0.010688
0.021357
0.010688
0.021357
0.021357
0.000018
0.010688
0.010688
0.000018
0.042697
0.010688
0.010688
0.021357
0.010688
0.000018
0.042697
0.032027
0.021357
0.000018
0.032027
0.032027
0.032027
0.010688
0.021357
0.021357
0.010688
0.010688
0.010688
0.021357
0.032027
0.032027
0.010688
0.021357
0.021357
0.032027
0.021357
0.032027
0.032027
0.032027
0.074706
0.064036
0.064036
0.074706
0.064036
0.032027
-0.010652
-0.010652
-0.021321
0.010688
-0.010652
0.000018
0.010688
0.021357
0.010688
0.021357
0.021357
0.010688
0.021357
0.032027
0.021357
0.032027
0.032027
0.010688
0.010688
0.010688
0.138724
0.128054
0.053366
-0.362750
-0.597482
-0.394759
-0.266723
-0.202705
-0.149357
-0.021321
0.000018
0.032027
0.053366
0.032027
0.064036
0.053366
0.032027
0.042697
0.064036
0.042697
0.010688
0.021357
0.010688
0.010688
0.021357
0.010688
0.000018
-0.021321
-0.031991
-0.042661
-0.042661
-0.042661
-0.042661
-0.085339
-0.085339
-0.117348
-0.138687
-0.128018
-0.149357
-0.149357
-0.138687
-0.117348
-0.117348
-0.064000
-0.053330
-0.031991
-0.010652
0.032027
0.032027
0.053366
0.042697
0.042697
0.053366
0.074706
0.074706
0.064036
0.074706
0.064036
0.064036
0.064036
0.064036
0.042697
0.053366
0.053366
0.053366
0.064036
0.053366
0.042697
0.032027
0.042697
0.021357
0.010688
0.064036
0.032027
0.042697
0.032027
0.032027
0.032027
0.032027
0.042697
0.042697
0.053366
0.042697
0.042697
0.032027
0.021357
0.021357
0.042697
0.032027
0.021357
0.042697
0.032027
0.042697
0.042697
0.053366
0.032027
0.064036
0.032027
0.042697
0.053366
0.042697
0.074706
0.085375
0.074706
0.117384
0.096045
0.042697
0.010688
0.000018
-0.010652
-0.010652
0.000018
0.021357
0.032027
0.032027
0.021357
0.032027
0.032027
0.032027
0.021357
0.032027
0.021357
0.021357
0.032027
0.032027
0.010688
0.042697
0.138724
0.106715
-0.128018
-0.576143
-0.608152
-0.341411
-0.256054
-0.181366
-0.064000
0.000018
0.021357
0.021357
0.042697
0.032027
0.042697
0.053366
0.042697
0.042697
0.053366
0.053366
0.032027
0.042697
0.042697
0.042697
0.032027
0.021357
0.021357
0.021357
-0.021321
-0.010652
-0.010652
-0.031991
-0.064000
-0.053330
-0.064000
-0.074669
-0.085339
-0.096009
-0.106678
-0.106678
-0.096009
-0.064000
-0.064000
-0.042661
-0.021321
0.000018
0.021357
0.032027
0.010688
0.021357
0.032027
0.032027
0.053366
0.042697
0.053366
0.042697
0.032027
0.032027
0.032027
0.042697
0.042697
0.042697
0.042697
0.042697
0.032027
0.053366
0.032027
0.032027
0.021357
0.000018
0.021357
0.000018
0.010688
0.010688
0.010688
0.010688
0.010688
0.000018
0.010688
0.010688
0.010688
0.010688
0.000018
0.010688
0.010688
0.000018
0.000018
0.010688
0.021357
0.021357
0.021357
0.032027
0.032027
0.021357
0.032027
0.021357
0.032027
0.021357
0.021357
0.021357
0.021357
0.032027
0.032027
0.021357
0.010688
0.053366
0.074706
0.085375
0.096045
0.096045
0.053366
0.000018
0.021357
-0.010652
0.000018
-0.010652
0.000018
0.021357
0.010688
0.010688
0.010688
0.021357
0.021357
0.021357
0.010688
0.021357
0.010688
0.021357
0.021357
0.021357
0.000018
0.160063
0.138724
0.074706
-0.469447
-0.725518
-0.597482
-0.437438
-0.309402
-0.138687
-0.021321
0.000018
0.064036
0.053366
0.053366
0.042697
0.032027
0.042697
0.053366
0.021357
0.021357
0.021357
0.021357
0.042697
0.032027
0.032027
0.021357
0.010688
0.010688
0.010688
0.010688
-0.021321
-0.021321
-0.031991
-0.031991
-0.031991
-0.042661
-0.064000
-0.074669
-0.085339
-0.096009
-0.085339
-0.064000
-0.074669
-0.042661
-0.042661
0.000018
0.010688
0.021357
0.032027
0.032027
0.042697
0.053366
0.053366
0.053366
0.053366
0.032027
0.021357
0.032027
0.032027
0.032027
0.021357
0.042697
0.032027
0.042697
0.021357
0.032027
0.032027
0.032027
0.042697
0.021357
0.042697
0.032027
0.010688
0.010688
0.010688
0.010688
0.010688
0.042697
0.010688
0.021357
0.032027
0.010688
0.010688
0.021357
0.010688
0.010688
0.010688
0.032027
0.021357
0.010688
0.042697
0.042697
0.032027
0.053366
0.021357
0.021357
0.021357
0.000018
0.010688
0.032027
0.032027
0.000018
0.010688
0.000018
0.053366
0.074706
0.064036
0.085375
0.074706
0.021357
-0.010652
-0.031991
-0.021321
-0.010652
0.000018
0.010688
0.010688
0.021357
0.021357
0.000018
0.010688
0.032027
0.021357
0.032027
0.053366
0.042697
0.032027
0.053366
0.032027
0.042697
0.160063
0.128054
0.021357
-0.448107
-0.608152
-0.352080
-0.224045
-0.181366
-0.085339
0.021357
0.010688
0.042697
0.064036
0.074706
0.064036
0.053366
0.053366
0.074706
0.064036
0.042697
0.021357
0.032027
0.010688
0.010688
0.010688
0.000018
-0.010652
-0.031991
-0.042661
-0.042661
-0.053330
-0.064000
-0.053330
-0.085339
-0.096009
-0.106678
-0.096009
-0.128018
-0.138687
-0.117348
-0.149357
-0.117348
-0.096009
-0.064000
-0.042661
-0.042661
-0.021321
0.010688
0.021357
0.021357
0.042697
0.053366
0.074706
0.053366
0.032027
0.053366
0.042697
0.042697
0.042697
0.021357
0.064036
0.042697
0.032027
0.042697
0.053366
0.042697
0.042697
0.053366
0.032027
0.032027
0.042697
0.021357
-0.010652
0.021357
0.021357
0.021357
0.000018
0.010688
0.032027
0.021357
0.032027
0.032027
0.042697
0.042697
0.021357
0.010688
0.021357
0.042697
0.053366
0.042697
0.053366
0.042697
0.032027
0.032027
0.032027
0.032027
0.021357
0.032027
0.042697
0.053366
0.074706
0.096045
0.096045
0.117384
0.106715
0.042697
0.021357
0.010688
0.010688
-0.010652
0.010688
0.021357
0.021357
0.021357
0.021357
0.032027
0.032027
0.032027
0.032027
0.032027
0.021357
0.021357
0.021357
0.021357
0.042697
0.032027
0.170732
0.128054
-0.010652
-0.480116
-0.608152
-0.341411
-0.224045
-0.192036
-0.106678
-0.021321
0.010688
0.042697
0.032027
0.032027
0.053366
0.032027
0.021357
0.032027
0.021357
0.042697
0.032027
0.010688
0.000018
0.000018
0.021357
0.021357
-0.010652
0.000018
-0.021321
-0.010652
-0.031991
-0.031991
-0.042661
-0.074669
-0.074669
-0.096009
-0.106678
-0.096009
-0.106678
-0.117348
-0.106678
-0.117348
-0.074669
-0.064000
-0.021321
0.010688
0.032027
0.032027
0.042697
0.053366
0.064036
0.064036
0.053366
0.053366
0.042697
0.053366
0.042697
0.053366
0.074706
0.074706
0.053366
0.064036
0.053366
0.053366
0.042697
0.053366
0.032027
0.021357
0.042697
0.042697
0.021357
0.042697
0.010688
0.010688
0.021357
0.021357
0.032027
0.010688
0.021357
0.021357
0.042697
0.042697
0.042697
0.042697
0.042697
0.032027
0.053366
0.021357
0.000018
0.042697
0.032027
0.021357
0.010688
0.021357
0.000018
0.021357
0.010688
0.010688
0.042697
0.010688
0.021357
0.010688
0.010688
-0.010652
0.021357
0.053366
0.074706
0.074706
0.085375
0.074706
0.032027
0.010688
-0.010652
0.021357
0.000018
0.000018
0.000018
0.021357
0.010688
0.032027
0.010688
0.000018
0.010688
0.032027
0.042697
0.021357
0.021357
0.000018
0.000018
0.032027
0.053366
0.149393
0.106715
-0.106678
-0.629491
-0.810875
-0.597482
-0.394759
-0.277393
-0.106678
-0.021321
0.000018
0.021357
0.032027
0.042697
0.064036
0.064036
0.042697
0.053366
0.042697
0.032027
0.042697
0.042697
0.032027
0.042697
0.021357
0.021357
0.010688
0.000018
0.000018
0.010688
-0.010652
-0.021321
-0.021321
-0.042661
-0.053330
-0.064000
-0.085339
-0.085339
-0.064000
-0.064000
-0.085339
-0.053330
-0.042661
-0.021321
0.010688
0.021357
0.042697
0.064036
0.064036
0.064036
0.042697
0.064036
0.053366
0.053366
0.042697
0.053366
0.032027
0.032027
0.042697
0.032027
0.032027
0.032027
0.053366
0.042697
0.032027
0.032027
0.042697
0.042697
0.042697
0.021357
0.042697
0.032027
0.032027
0.032027
0.032027
0.032027
0.032027
0.032027
0.021357
0.032027
0.010688
0.021357
0.032027
0.032027
0.053366
0.042697
0.042697
0.032027
0.021357
0.021357
0.032027
0.032027
0.010688
0.042697
0.032027
0.000018
0.021357
0.021357
0.021357
0.032027
0.032027
0.032027
0.000018
0.010688
0.010688
0.053366
0.053366
0.085375
0.096045
0.074706
0.010688
0.000018
-0.010652
-0.021321
-0.010652
0.010688
0.000018
0.000018
0.000018
-0.010652
0.010688
0.010688
0.021357
0.010688
0.032027
0.010688
-0.010652
0.000018
0.010688
0.000018
0.010688
0.138724
0.106715
-0.096009
-0.608152
-0.768197
-0.533464
-0.362750
-0.256054
-0.085339
-0.021321
0.000018
0.032027
0.032027
0.032027
0.032027
0.032027
0.021357
0.032027
0.032027
0.042697
0.053366
0.032027
0.032027
0.010688
0.010688
0.021357
0.010688
0.000018
-0.010652
-0.021321
-0.021321
-0.031991
-0.042661
-0.064000
-0.085339
-0.096009
-0.117348
-0.117348
-0.106678
-0.138687
-0.138687
-0.096009
-0.096009
-0.064000
-0.031991
0.010688
0.010688
0.021357
0.032027
0.021357
0.032027
0.053366
0.032027
0.032027
0.042697
0.053366
0.053366
0.021357
0.000018
0.021357
0.021357
0.053366
0.053366
0.042697
0.042697
0.032027
0.042697
0.042697
0.074706
0.053366
0.021357
0.042697
0.053366
0.053366
0.010688
0.064036
0.032027
0.032027
0.032027
0.032027
0.021357
0.000018
0.021357
0.032027
0.021357
0.021357
0.042697
0.042697
0.032027
0.053366
0.064036
0.032027
0.042697
0.053366
0.042697
0.042697
0.064036
0.053366
0.021357
0.053366
0.085375
0.106715
0.085375
0.106715
0.096045
0.053366
0.032027
0.021357
0.010688
0.042697
0.032027
0.021357
0.021357
0.021357
0.032027
0.010688
0.042697
0.042697
0.021357
0.042697
0.032027
0.032027
0.032027
0.053366
0.032027
0.064036
0.160063
0.160063
0.085375
-0.288062
-0.544134
-0.341411
-0.170696
-0.138687
-0.128018
-0.031991
0.010688
0.021357
0.042697
0.053366
0.064036
0.053366
0.064036
0.032027
0.032027
0.010688
0.042697
0.021357
0.021357
0.021357
0.021357
0.000018
0.000018
0.000018
0.010688
-0.021321
-0.053330
-0.042661
-0.053330
-0.064000
-0.085339
-0.106678
-0.117348
-0.149357
-0.160027
-0.170696
-0.160027
-0.128018
-0.117348
-0.085339
-0.053330
-0.021321
0.010688
0.032027
0.064036
0.042697
0.074706
0.053366
0.053366
0.064036
0.042697
0.042697
0.064036
0.064036
0.064036
0.064036
0.074706
0.064036
0.064036
0.064036
0.074706
0.053366
0.053366
0.053366
0.053366
0.032027
0.032027
0.032027
0.010688
0.021357
0.021357
0.010688
0.032027
0.032027
0.010688
0.021357
0.010688
0.021357
0.021357
0.021357
0.010688
-0.010652
0.010688
0.032027
0.021357
-0.010652
0.010688
0.032027
0.032027
0.032027
0.032027
0.032027
0.042697
0.042697
0.053366
0.021357
0.010688
0.042697
0.074706
0.064036
0.085375
0.096045
0.074706
0.021357
-0.010652
-0.010652
-0.021321
0.000018
0.000018
0.010688
0.010688
-0.010652
-0.010652
0.010688
0.021357
0.021357
0.032027
0.032027
0.021357
0.021357
0.010688
0.021357
0.021357
0.128054
0.149393
0.117384
-0.320071
-0.693509
-0.597482
-0.469447
-0.288062
-0.181366
-0.042661
-0.010652
0.032027
0.042697
0.021357
0.042697
0.021357
0.053366
0.010688
0.010688
0.032027
0.010688
0.010688
-0.010652
0.000018
0.000018
-0.010652
-0.010652
-0.010652
0.000018
-0.021321
-0.042661
-0.021321
-0.053330
-0.064000
-0.074669
-0.096009
-0.074669
-0.106678
-0.096009
-0.117348
-0.106678
-0.096009
-0.074669
-0.096009
-0.064000
-0.031991
0.010688
0.021357
0.021357
0.042697
0.042697
0.042697
0.053366
0.042697
0.032027
0.053366
0.042697
0.032027
0.042697
0.032027
0.064036
0.053366
0.053366
0.053366
0.064036
0.042697
0.053366
0.053366
0.064036
0.042697
0.042697
0.042697
0.042697
0.042697
0.021357
0.021357
0.032027
0.032027
0.032027
0.021357
0.000018
0.021357
0.032027
0.032027
0.042697
0.032027
0.021357
0.021357
0.032027
0.042697
0.032027
0.032027
0.042697
0.021357
0.042697
0.032027
0.042697
0.032027
0.021357
0.042697
0.053366
0.032027
0.032027
0.074706
0.096045
0.096045
0.106715
0.117384
0.042697
0.021357
0.000018
-0.010652
0.010688
-0.010652
0.010688
0.021357
0.000018
0.000018
0.010688
0.021357
0.021357
0.021357
0.021357
0.021357
0.032027
0.042697
0.032027
0.010688
0.064036
0.149393
0.106715
-0.234714
-0.650831
-0.672170
-0.480116
-0.309402
-0.224045
-0.096009
-0.042661
0.010688
0.021357
0.032027
0.021357
0.042697
0.032027
0.042697
0.021357
0.021357
0.053366
0.032027
0.032027
0.021357
0.032027
0.053366
0.010688
0.010688
0.000018
0.000018
0.000018
0.000018
-0.042661
-0.021321
-0.042661
-0.042661
-0.096009
-0.074669
-0.074669
-0.096009
-0.096009
-0.074669
-0.074669
-0.053330
-0.042661
-0.010652
0.000018
0.032027
0.032027
0.042697
0.042697
0.021357
0.042697
0.053366
0.042697
0.021357
0.032027
0.032027
0.032027
0.042697
0.042697
0.042697
0.032027
0.053366
0.032027
0.032027
0.053366
0.021357
0.032027
0.032027
0.042697
0.032027
0.042697
0.021357
0.032027
0.021357
0.021357
0.032027
0.032027
0.053366
0.032027
0.032027
0.042697
0.032027
0.042697
0.053366
0.042697
0.032027
0.021357
0.042697
0.042697
0.032027
0.000018
0.010688
0.042697
0.032027
0.032027
0.021357
0.042697
0.032027
0.042697
0.064036
0.074706
0.106715
0.106715
0.064036
0.021357
0.032027
0.032027
0.000018
0.000018
0.021357
0.053366
0.042697
0.042697
0.021357
0.010688
0.032027
0.021357
0.042697
0.032027
0.021357
0.021357
0.021357
0.021357
0.042697
0.160063
0.106715
-0.064000
-0.501455
-0.554804
-0.256054
-0.181366
-0.181366
-0.096009
-0.042661
0.000018
0.021357
0.021357
0.021357
0.010688
0.021357
0.010688
0.010688
0.010688
0.021357
0.000018
0.010688
0.032027
0.000018
0.010688
0.000018
0.000018
-0.042661
-0.042661
-0.021321
-0.042661
-0.085339
-0.106678
-0.096009
-0.106678
-0.128018
-0.128018
-0.128018
-0.138687
-0.138687
-0.138687
-0.128018
-0.117348
-0.074669
-0.031991
-0.010652
0.000018
0.021357
0.042697
0.053366
0.042697
0.042697
0.074706
0.074706
0.064036
0.074706
0.096045
0.064036
0.053366
0.064036
0.064036
0.064036
0.064036
0.064036
0.064036
0.053366
0.042697
0.042697
0.053366
0.042697
0.032027
0.032027
0.021357
0.032027
0.042697
0.064036
0.042697
0.042697
0.053366
0.053366
0.032027
0.085375
0.053366
0.053366
0.064036
0.064036
0.064036
0.074706
0.053366
0.064036
0.053366
0.074706
0.053366
0.032027
0.042697
0.032027
0.064036
0.042697
0.042697
0.074706
0.096045
0.085375
0.074706
0.053366
0.010688
0.000018
0.000018
0.000018
0.010688
0.000018
0.010688
0.021357
0.010688
0.010688
0.010688
0.032027
0.021357
0.010688
0.042697
0.042697
0.032027
0.021357
0.032027
0.010688
0.149393
0.106715
-0.010652
-0.522795
-0.704179
-0.458777
-0.320071
-0.245384
-0.117348
-0.021321
-0.010652
0.010688
0.021357
0.042697
0.053366
0.021357
0.021357
0.021357
0.021357
0.032027
0.021357
0.010688
0.000018
0.000018
0.000018
0.010688
-0.010652
-0.021321
-0.021321
-0.031991
-0.053330
-0.042661
-0.064000
-0.085339
-0.085339
-0.096009
-0.096009
-0.085339
-0.096009
-0.106678
-0.096009
-0.085339
-0.053330
-0.042661
-0.031991
-0.010652
0.010688
0.032027
0.032027
0.032027
0.042697
0.021357
0.032027
0.021357
0.042697
0.042697
0.032027
0.021357
0.032027
0.042697
0.042697
0.053366
0.064036
0.053366
0.053366
0.042697
0.032027
0.021357
0.010688
0.010688
0.010688
0.010688
0.010688
0.010688
0.032027
0.032027
0.021357
0.010688
0.021357
0.021357
0.021357
0.021357
0.032027
0.032027
0.021357
0.021357
0.021357
0.021357
0.053366
0.053366
0.032027
0.053366
0.053366
0.053366
0.064036
0.064036
0.053366
0.053366
0.010688
0.021357
0.042697
0.064036
0.074706
0.074706
0.064036
0.074706
0.074706
0.021357
0.000018
-0.010652
-0.010652
-0.010652
0.000018
0.000018
0.000018
0.000018
0.021357
-0.010652
0.000018
0.021357
0.010688
0.010688
0.010688
0.000018
0.021357
0.021357
0.021357
0.160063
0.128054
0.032027
-0.501455
-0.736188
-0.565473
-0.405429
-0.288062
-0.106678
-0.021321
-0.021321
0.042697
0.042697
0.042697
0.042697
0.021357
0.032027
0.032027
0.032027
0.042697
0.042697
0.053366
0.042697
0.032027
0.032027
0.010688
0.032027
0.021357
0.010688
0.000018
-0.010652
-0.010652
-0.021321
-0.031991
-0.042661
-0.064000
-0.096009
-0.085339
-0.106678
-0.096009
-0.106678
-0.096009
-0.064000
-0.042661
-0.010652
0.021357
0.021357
0.042697
0.042697
0.032027
0.074706
0.053366
0.064036
0.042697
0.042697
0.042697
0.021357
0.032027
0.042697
0.021357
0.032027
0.042697
0.053366
0.053366
0.032027
0.032027
0.053366
0.053366
0.042697
0.053366
0.053366
0.042697
0.064036
0.042697
0.010688
0.021357
0.021357
0.042697
0.021357
0.032027
0.032027
0.032027
0.021357
0.021357
0.021357
0.042697
0.042697
0.042697
0.000018
0.032027
0.042697
0.042697
0.032027
0.032027
0.021357
0.010688
0.021357
0.021357
0.032027
0.053366
0.064036
0.064036
0.074706
0.096045
0.053366
0.000018
0.000018
-0.031991
-0.031991
-0.010652
-0.021321
0.000018
-0.010652
0.010688
0.000018
0.021357
0.021357
0.042697
0.032027
-0.010652
0.021357
0.010688
0.010688
0.010688
0.032027
0.160063
0.106715
-0.021321
-0.448107
-0.608152
-0.362750
-0.256054
-0.224045
-0.128018
-0.031991
-0.010652
0.000018
0.042697
0.021357
0.064036
0.053366
0.042697
0.042697
0.032027
0.032027
0.032027
0.032027
0.021357
0.032027
0.032027
0.021357
0.010688
0.000018
-0.031991
-0.010652
-0.031991
-0.053330
-0.074669
-0.106678
-0.117348
-0.096009
-0.117348
-0.128018
-0.149357
-0.149357
-0.138687
-0.117348
-0.106678
-0.085339
-0.042661
0.000018
0.000018
0.053366
0.021357
0.021357
0.074706
0.053366
0.085375
0.074706
0.053366
0.064036
0.042697
0.053366
0.064036
0.064036
0.053366
0.032027
0.074706
0.042697
0.053366
0.042697
0.042697
0.021357
0.010688
0.021357
0.032027
0.032027
0.032027
0.000018
0.010688
0.000018
0.032027
0.021357
0.053366
0.042697
0.042697
0.032027
0.042697
0.042697
0.042697
0.042697
0.042697
0.053366
0.032027
0.042697
0.042697
0.032027
0.032027
0.042697
0.032027
0.032027
0.042697
0.053366
0.074706
0.074706
0.085375
0.106715
0.074706
0.021357
-0.010652
0.000018
0.000018
0.010688
0.010688
0.032027
0.021357
0.021357
0.010688
0.021357
0.042697
0.042697
0.042697
0.042697
0.042697
0.032027
0.032027
0.021357
0.053366
0.160063
0.149393
0.053366
-0.352080
-0.586813
-0.384089
-0.224045
-0.202705
-0.128018
-0.042661
0.000018
0.042697
0.053366
0.064036
0.021357
0.064036
0.053366
0.042697
0.032027
0.042697
0.042697
0.032027
0.042697
0.032027
0.042697
0.021357
0.021357
-0.010652
-0.010652
-0.031991
-0.021321
-0.031991
-0.053330
-0.074669
-0.085339
-0.106678
-0.117348
-0.138687
-0.117348
-0.128018
-0.117348
-0.117348
-0.074669
-0.064000
-0.021321
-0.010652
0.000018
0.021357
0.021357
0.032027
0.053366
0.032027
0.053366
0.053366
0.053366
0.032027
0.053366
0.042697
0.042697
0.042697
0.053366
0.042697
0.053366
0.032027
0.042697
0.032027
0.021357
0.032027
0.010688
0.032027
0.000018
-0.010652
0.000018
0.000018
0.000018
0.000018
0.010688
0.042697
0.042697
0.021357
0.021357
0.032027
0.021357
0.032027
0.021357
0.042697
0.042697
0.053366
0.042697
0.032027
0.042697
0.032027
0.021357
0.021357
0.021357
0.032027
0.032027
0.021357
0.042697
0.053366
0.042697
0.074706
0.064036
0.096045
0.106715
0.106715
0.096045
0.032027
-0.010652
0.000018
-0.010652
0.010688
0.010688
0.021357
0.021357
0.032027
0.021357
0.042697
0.032027
0.042697
0.021357
0.021357
0.021357
0.000018
0.021357
0.010688
0.021357
0.096045
0.138724
0.106715
-0.330741
-0.736188
-0.682840
-0.533464
-0.352080
-0.202705
-0.053330
-0.021321
0.032027
0.010688
0.042697
0.053366
0.032027
0.032027
0.042697
0.032027
0.032027
0.021357
0.010688
0.000018
0.010688
0.032027
0.032027
0.021357
0.010688
0.000018
0.010688
0.010688
-0.021321
-0.031991
-0.053330
-0.042661
-0.053330
-0.074669
-0.085339
-0.096009
-0.117348
-0.106678
-0.117348
-0.074669
-0.053330
-0.021321
0.000018
0.032027
0.053366
0.064036
0.053366
0.053366
0.042697
0.042697
0.042697
0.032027
0.021357
0.021357
0.000018
0.042697
0.042697
0.053366
0.032027
0.021357
0.032027
0.042697
0.032027
0.042697
0.064036
0.042697
0.032027
0.032027
0.032027
0.032027
0.032027
0.021357
0.021357
0.021357
0.032027
0.042697
0.021357
0.032027
0.021357
0.021357
0.021357
0.053366
0.053366
0.032027
0.042697
0.032027
0.042697
0.042697
0.021357
0.000018
0.010688
0.021357
0.010688
0.021357
0.010688
0.010688
0.010688
0.021357
0.000018
0.032027
0.053366
0.085375
0.074706
0.096045
0.053366
0.010688
0.021357
-0.010652
-0.010652
0.010688
0.000018
0.000018
0.000018
0.010688
0.042697
0.021357
0.032027
0.021357
0.032027
0.032027
0.021357
0.021357
0.000018
0.021357
0.032027
0.181402
0.128054
-0.010652
-0.522795
-0.725518
-0.501455
-0.341411
-0.277393
-0.106678
0.000018
0.010688
0.032027
0.042697
0.053366
0.064036
0.042697
0.042697
0.032027
0.042697
0.032027
0.053366
0.021357
0.021357
0.032027
0.032027
0.010688
0.010688
0.000018
-0.010652
-0.031991
-0.031991
-0.031991
-0.021321
-0.053330
-0.085339
-0.106678
-0.106678
-0.128018
-0.149357
-0.117348
-0.149357
-0.117348
-0.085339
-0.053330
-0.021321
-0.010652
0.021357
0.042697
0.053366
0.032027
0.064036
0.053366
0.053366
0.032027
0.032027
0.042697
0.042697
0.053366
0.042697
0.064036
0.042697
0.042697
0.042697
0.053366
0.042697
0.053366
0.064036
0.032027
0.042697
0.064036
0.042697
0.021357
0.032027
0.021357
0.021357
0.053366
0.042697
0.021357
0.032027
0.053366
0.053366
0.064036
0.053366
0.064036
0.064036
0.053366
0.032027
0.010688
0.042697
0.010688
0.032027
0.042697
0.042697
0.021357
0.032027
0.032027
0.000018
0.021357
0.053366
0.064036
0.074706
0.074706
0.053366
0.010688
0.000018
0.000018
-0.010652
-0.010652
0.000018
0.000018
-0.010652
0.000018
0.021357
0.021357
0.000018
0.021357
0.053366
0.042697
0.032027
0.021357
0.032027
0.021357
0.010688
0.106715
0.160063
0.064036
-0.213375
-0.544134
-0.480116
-0.170696
-0.117348
-0.149357
-0.042661
0.000018
0.053366
0.042697
0.053366
0.064036
0.053366
0.042697
0.042697
0.032027
0.032027
0.053366
0.032027
0.042697
0.010688
0.010688
0.010688
0.021357
0.000018
-0.021321
-0.031991
-0.031991
-0.031991
-0.042661
-0.053330
-0.096009
-0.117348
-0.106678
-0.128018
-0.138687
-0.149357
-0.160027
-0.149357
-0.138687
-0.106678
-0.064000
-0.031991
-0.010652
0.021357
0.021357
0.042697
0.053366
0.053366
0.053366
0.042697
0.064036
0.064036
0.053366
0.042697
0.064036
0.053366
0.074706
0.064036
0.064036
0.074706
0.074706
0.053366
0.053366
0.032027
0.064036
0.042697
0.032027
0.032027
0.021357
0.010688
0.010688
0.032027
0.021357
0.042697
0.032027
0.042697
0.042697
0.042697
0.032027
0.042697
0.053366
0.042697
0.032027
0.032027
0.042697
0.032027
0.032027
0.021357
0.032027
0.032027
0.042697
0.053366
0.053366
0.053366
0.053366
0.053366
0.064036
0.096045
0.106715
0.096045
0.117384
0.106715
0.064036
0.032027
0.021357
0.010688
0.021357
0.021357
0.032027
0.042697
0.032027
0.042697
0.010688
0.010688
-0.010652
0.010688
0.000018
0.010688
0.010688
0.032027
0.010688
0.032027
0.053366
0.170732
0.149393
0.074706
-0.480116
-0.757527
-0.608152
-0.448107
-0.298732
-0.138687
-0.031991
0.000018
0.042697
0.032027
0.042697
0.053366
0.042697
0.053366
0.021357
0.032027
0.053366
0.042697
0.042697
0.042697
0.032027
0.032027
0.021357
0.010688
0.000018
-0.010652
0.000018
-0.010652
-0.010652
-0.053330
-0.042661
-0.064000
-0.085339
-0.096009
-0.117348
-0.128018
-0.117348
-0.096009
-0.096009
-0.064000
-0.053330
-0.021321
-0.010652
0.021357
0.032027
0.021357
0.032027
0.032027
0.042697
0.042697
0.042697
0.032027
0.032027
0.032027
0.032027
0.021357
0.010688
0.010688
0.010688
0.032027
0.021357
0.032027
0.042697
0.053366
0.053366
0.032027
0.042697
0.021357
0.032027
0.021357
0.021357
0.021357
0.010688
0.010688
0.021357
0.010688
0.010688
0.010688
0.021357
0.032027
0.042697
0.010688
0.021357
0.010688
0.010688
0.000018
0.010688
0.032027
0.032027
0.010688
0.021357
0.021357
0.032027
0.021357
0.021357
0.032027
0.032027
0.032027
0.032027
0.064036
0.053366
0.074706
0.106715
0.117384
0.085375
0.042697
0.021357
0.010688
0.021357
0.021357
0.032027
0.021357
0.021357
0.032027
0.032027
0.021357
0.032027
0.021357
0.032027
0.021357
0.032027
0.021357
0.021357
0.021357
0.021357
0.128054
0.128054
0.085375
-0.384089
-0.672170
-0.576143
-0.437438
-0.288062
-0.160027
-0.042661
-0.010652
0.021357
0.042697
0.032027
0.032027
0.032027
0.042697
0.042697
0.021357
0.032027
0.021357
0.032027
0.021357
0.021357
0.032027
0.042697
0.042697
0.021357
0.000018
0.010688
-0.010652
0.000018
-0.031991
-0.031991
-0.064000
-0.074669
-0.117348
-0.106678
-0.117348
-0.085339
-0.106678
-0.106678
-0.074669
-0.053330
-0.031991
-0.010652
0.010688
0.021357
0.032027
0.042697
0.053366
0.032027
0.032027
0.042697
0.042697
0.032027
0.021357
0.021357
0.021357
0.010688
0.021357
0.042697
0.021357
0.042697
0.042697
0.042697
0.042697
0.032027
0.021357
0.021357
0.032027
0.053366
0.042697
0.042697
0.010688
0.042697
0.010688
0.021357
0.021357
0.021357
0.010688
0.010688
0.042697
0.042697
0.032027
0.032027
0.021357
0.021357
0.032027
0.021357
0.010688
0.010688
0.042697
0.032027
0.021357
0.032027
0.032027
0.021357
0.021357
0.032027
0.021357
0.032027
0.032027
0.042697
0.064036
0.053366
0.085375
0.064036
0.032027
0.000018
-0.010652
-0.010652
-0.010652
0.000018
0.000018
-0.021321
0.010688
0.000018
0.021357
0.032027
0.053366
0.053366
0.042697
0.042697
0.032027
0.042697
0.042697
0.021357
0.042697
0.149393
0.138724
0.010688
-0.437438
-0.618822
-0.362750
-0.266723
-0.213375
-0.096009
0.000018
0.021357
0.053366
0.032027
0.053366
0.074706
0.042697
0.032027
0.042697
0.032027
0.053366
0.042697
0.042697
0.032027
0.021357
0.032027
0.021357
0.021357
0.010688
-0.042661
-0.021321
-0.042661
-0.074669
-0.064000
-0.085339
-0.096009
-0.096009
-0.128018
-0.128018
-0.128018
-0.128018
-0.128018
-0.117348
-0.096009
-0.074669
-0.064000
-0.021321
0.010688
0.000018
0.032027
0.042697
0.032027
0.032027
0.032027
0.053366
0.053366
0.064036
0.053366
0.053366
0.053366
0.032027
0.074706
0.074706
0.064036
0.053366
0.042697
0.042697
0.064036
0.032027
0.032027
0.053366
0.042697
0.010688
0.032027
0.010688
0.010688
0.032027
0.032027
0.032027
0.010688
0.021357
0.021357
0.021357
0.032027
0.042697
0.042697
0.053366
0.042697
0.042697
0.064036
0.053366
0.021357
0.032027
0.064036
0.042697
0.042697
0.042697
0.042697
0.032027
0.042697
0.085375
0.074706
0.106715
0.117384
0.096045
0.064036
0.000018
0.010688
0.000018
0.010688
0.010688
0.000018
0.021357
0.021357
0.032027
0.032027
0.042697
0.042697
0.053366
0.053366
0.032027
0.032027
0.042697
0.042697
0.032027
0.021357
0.138724
0.106715
0.000018
-0.394759
-0.597482
-0.352080
-0.224045
-0.224045
-0.128018
-0.010652
0.010688
0.053366
0.053366
0.032027
0.074706
0.074706
0.053366
0.042697
0.021357
0.042697
0.053366
0.064036
0.053366
0.032027
0.042697
0.042697
0.021357
0.021357
0.010688
0.010688
0.010688
-0.021321
-0.031991
-0.042661
-0.074669
-0.064000
-0.106678
-0.117348
-0.106678
-0.096009
-0.096009
-0.106678
-0.085339
-0.064000
-0.021321
-0.010652
-0.010652
-0.010652
-0.010652
0.021357
0.010688
0.032027
0.032027
0.053366
0.053366
0.053366
0.042697
0.064036
0.053366
0.064036
0.074706
0.053366
0.032027
0.021357
0.032027
0.021357
0.010688
-0.010652
-0.010652
0.010688
0.010688
-0.021321
0.000018
0.000018
-0.021321
0.000018
0.000018
0.010688
0.010688
0.000018
0.010688
0.010688
0.000018
0.000018
0.000018
0.000018
-0.010652
0.021357
0.010688
0.021357
0.010688
0.010688
0.021357
0.000018
0.010688
0.010688
0.000018
0.021357
0.000018
0.000018
0.010688
0.021357
0.032027
0.021357
0.021357
0.053366
0.074706
0.106715
0.085375
0.042697
0.010688
0.000018
-0.010652
-0.010652
0.000018
0.021357
0.000018
0.010688
0.010688
0.021357
0.032027
0.032027
0.010688
0.010688
0.021357
0.021357
0.021357
0.032027
0.021357
0.010688
0.170732
0.106715
-0.042661
-0.576143
-0.800206
-0.576143
-0.405429
-0.256054
-0.096009
-0.021321
0.021357
0.042697
0.010688
0.021357
0.053366
0.000018
0.021357
0.053366
0.032027
0.042697
0.042697
0.032027
0.042697
0.021357
0.042697
0.032027
0.032027
0.032027
0.021357
0.032027
0.010688
0.000018
0.000018
-0.042661
-0.042661
-0.053330
-0.064000
-0.074669
-0.074669
-0.074669
-0.085339
-0.074669
-0.042661
-0.021321
0.000018
0.000018
0.010688
0.010688
0.032027
0.032027
0.042697
0.032027
0.032027
0.032027
0.053366
0.042697
0.032027
0.042697
0.042697
0.053366
0.032027
0.032027
0.032027
0.021357
0.042697
0.053366
0.064036
0.053366
0.032027
0.032027
0.032027
0.032027
0.010688
0.021357
0.021357
0.021357
0.032027
0.000018
0.010688
0.010688
0.010688
0.010688
0.021357
0.032027
0.021357
0.021357
0.021357
0.021357
0.032027
0.021357
0.021357
0.032027
0.021357
0.010688
0.032027
0.010688
0.010688
0.032027
0.021357
0.032027
0.053366
0.032027
0.032027
0.064036
0.064036
0.085375
0.085375
0.064036
0.064036
0.000018
-0.010652
-0.021321
-0.010652
-0.010652
0.000018
0.000018
-0.010652
-0.021321
0.000018
-0.021321
0.000018
0.000018
0.010688
0.032027
0.021357
0.000018
0.010688
0.010688
0.032027
0.149393
0.128054
0.085375
-0.384089
-0.693509
-0.544134
-0.405429
-0.266723
-0.149357
-0.021321
0.010688
0.064036
0.074706
0.074706
0.074706
0.042697
0.074706
0.053366
0.074706
0.074706
0.032027
0.053366
0.064036
0.064036
0.032027
0.021357
0.021357
0.021357
-0.021321
0.000018
-0.031991
-0.042661
-0.042661
-0.053330
-0.074669
-0.106678
-0.096009
-0.117348
-0.117348
-0.128018
-0.128018
-0.106678
-0.106678
-0.106678
-0.053330
-0.031991
0.000018
0.032027
0.042697
0.032027
0.032027
0.032027
0.042697
0.064036
0.053366
0.053366
0.042697
0.032027
0.042697
0.032027
0.042697
0.064036
0.042697
0.053366
0.021357
0.021357
0.021357
0.053366
0.032027
0.021357
0.021357
0.010688
0.021357
0.032027
0.042697
0.042697
0.042697
0.064036
0.042697
0.042697
0.032027
0.042697
0.042697
0.053366
0.032027
0.021357
0.042697
0.032027
0.021357
0.021357
0.032027
0.053366
0.042697
0.032027
0.021357
0.021357
0.032027
0.032027
0.053366
0.032027
0.053366
0.042697
0.064036
0.074706
0.042697
0.032027
0.000018
0.000018
-0.010652
-0.021321
0.010688
0.010688
0.021357
0.032027
0.032027
0.010688
0.053366
0.032027
0.064036
0.053366
0.042697
0.053366
0.042697
0.053366
0.053366
0.117384
0.181402
0.117384
-0.170696
-0.533464
-0.437438
-0.149357
-0.106678
-0.138687
-0.042661
0.032027
0.032027
0.042697
0.053366
0.053366
0.042697
0.042697
0.032027
0.042697
0.032027
0.042697
0.042697
0.032027
0.032027
0.021357
0.010688
0.010688
-0.010652
-0.021321
-0.053330
-0.031991
-0.053330
-0.053330
-0.074669
-0.096009
-0.096009
-0.106678
-0.106678
-0.117348
-0.138687
-0.128018
-0.128018
-0.117348
-0.085339
-0.064000
-0.031991
0.000018
0.010688
0.032027
0.032027
0.042697
0.042697
0.042697
0.064036
0.042697
0.053366
0.064036
0.064036
0.064036
0.053366
0.064036
0.053366
0.032027
0.064036
0.064036
0.064036
0.042697
0.064036
0.074706
0.042697
0.042697
0.053366
0.042697
0.042697
0.064036
0.042697
0.042697
0.032027
0.032027
0.021357
0.021357
0.021357
0.021357
0.032027
0.021357
0.021357
-0.021321
-0.010652
-0.010652
0.000018
0.010688
0.010688
0.010688
0.010688
0.000018
0.010688
0.010688
-0.010652
-0.010652
0.010688
0.021357
0.010688
0.021357
0.042697
0.064036
0.085375
0.117384
0.085375
0.042697
0.000018
-0.021321
-0.021321
0.000018
0.000018
0.010688
0.010688
0.021357
0.032027
0.021357
0.021357
0.032027
0.021357
0.021357
0.021357
0.021357
0.021357
0.021357
0.010688
0.032027
0.181402
0.085375
-0.085339
-0.618822
-0.789536
-0.565473
-0.352080
-0.256054
-0.064000
-0.010652
0.000018
0.032027
0.032027
0.032027
0.053366
0.032027
0.032027
0.032027
0.042697
0.042697
0.021357
0.021357
0.021357
0.000018
0.021357
0.000018
-0.010652
-0.010652
-0.010652
0.010688
-0.010652
-0.010652
-0.010652
-0.031991
-0.064000
-0.074669
-0.074669
-0.085339
-0.074669
-0.074669
-0.074669
-0.064000
-0.042661
-0.021321
0.021357
0.021357
0.032027
0.053366
0.042697
0.053366
0.053366
0.064036
0.042697
0.074706
0.064036
0.064036
0.032027
0.021357
0.042697
0.064036
0.053366
0.053366
0.053366
0.042697
0.042697
0.064036
0.064036
0.064036
0.053366
0.053366
0.053366
0.064036
0.042697
0.032027
0.032027
0.042697
0.042697
0.021357
0.021357
0.032027
0.021357
0.032027
0.042697
0.032027
0.010688
0.000018
0.032027
0.021357
0.021357
0.010688
0.010688
0.010688
0.021357
0.021357
0.032027
0.032027
0.010688
0.032027
0.010688
0.021357
0.032027
0.032027
0.032027
0.053366
0.064036
0.064036
0.074706
0.096045
0.053366
0.010688
-0.010652
-0.010652
-0.021321
0.000018
0.010688
0.021357
0.021357
0.000018
0.021357
0.010688
0.021357
0.032027
0.032027
0.021357
0.032027
0.010688
0.032027
0.042697
0.042697
0.138724
0.160063
0.117384
-0.341411
-0.693509
-0.597482
-0.448107
-0.309402
-0.170696
-0.053330
-0.010652
0.010688
0.042697
0.053366
0.064036
0.042697
0.042697
0.064036
0.053366
0.053366
0.032027
0.053366
0.021357
0.021357
0.032027
0.032027
0.021357
0.010688
0.010688
0.000018
-0.010652
-0.021321
-0.031991
-0.053330
-0.053330
-0.064000
-0.064000
-0.053330
-0.064000
-0.074669
-0.085339
-0.074669
-0.074669
-0.042661
-0.031991
-0.010652
-0.010652
0.000018
0.032027
0.032027
0.010688
0.032027
0.032027
0.032027
0.042697
0.032027
0.032027
0.042697
0.042697
0.042697
0.042697
0.042697
0.032027
0.032027
0.021357
0.032027
0.042697
0.042697
0.021357
0.021357
0.032027
0.021357
0.021357
0.010688
0.021357
0.021357
0.032027
0.042697
0.021357
0.010688
0.053366
0.021357
0.021357
0.021357
0.053366
0.032027
0.010688
0.010688
0.000018
0.032027
0.000018
0.021357
0.010688
0.010688
0.032027
-0.010652
-0.010652
0.021357
0.010688
0.021357
0.010688
0.010688
0.021357
0.032027
0.064036
0.074706
0.074706
0.096045
0.085375
0.032027
0.021357
0.000018
-0.031991
-0.010652
-0.021321
0.000018
0.010688
0.010688
0.021357
0.010688
0.000018
-0.010652
0.000018
0.000018
0.000018
0.010688
0.021357
0.032027
0.042697
0.042697
0.160063
0.138724
0.053366
-0.426768
-0.629491
-0.394759
-0.256054
-0.224045
-0.128018
-0.021321
-0.021321
0.042697
0.053366
0.042697
0.042697
0.053366
0.053366
0.042697
0.053366
0.042697
0.042697
0.021357
0.042697
0.021357
0.010688
0.000018
-0.021321
-0.021321
-0.053330
-0.031991
-0.031991
-0.053330
-0.053330
-0.074669
-0.096009
-0.138687
-0.117348
-0.117348
-0.128018
-0.128018
-0.138687
-0.128018
-0.085339
-0.064000
-0.064000
-0.031991
0.000018
0.021357
0.032027
0.053366
0.053366
0.042697
0.042697
0.064036
0.042697
0.053366
0.053366
0.053366
0.064036
0.074706
0.074706
0.032027
0.053366
0.042697
0.032027
0.064036
0.064036
0.053366
0.064036
0.021357
0.053366
0.064036
0.053366
0.064036
0.032027
0.053366
0.032027
0.042697
0.042697
0.032027
0.021357
0.032027
0.042697
0.042697
0.032027
0.032027
0.032027
0.042697
0.042697
0.021357
0.042697
0.053366
0.032027
0.042697
0.053366
0.053366
0.032027
0.032027
0.021357
0.021357
0.053366
0.074706
0.085375
0.096045
0.096045
0.064036
0.010688
0.010688
0.000018
0.010688
0.021357
0.042697
0.021357
0.021357
0.032027
0.032027
0.042697
0.032027
0.042697
0.042697
0.032027
0.032027
0.032027
0.032027
0.042697
0.053366
0.181402
0.138724
0.053366
-0.362750
-0.576143
-0.330741
-0.213375
-0.160027
-0.117348
0.000018
0.010688
0.042697
0.064036
0.053366
0.064036
0.032027
0.074706
0.064036
0.042697
0.074706
0.053366
0.053366
0.021357
0.032027
0.021357
0.010688
0.000018
0.000018
-0.021321
-0.021321
-0.021321
-0.042661
-0.042661
-0.053330
-0.096009
-0.085339
-0.096009
-0.106678
-0.096009
-0.138687
-0.106678
-0.117348
-0.074669
-0.074669
-0.031991
-0.010652
-0.010652
-0.010652
0.021357
0.042697
0.021357
0.010688
0.032027
0.021357
0.032027
0.042697
0.053366
0.032027
0.021357
0.010688
0.042697
0.042697
0.042697
0.032027
0.021357
0.032027
0.032027
0.010688
0.021357
-0.010652
0.010688
0.010688
0.021357
0.021357
-0.010652
-0.021321
0.010688
0.010688
0.010688
0.010688
0.010688
0.010688
0.010688
0.021357
0.010688
0.000018
0.000018
0.000018
0.000018
0.021357
0.021357
0.032027
0.032027
0.021357
0.032027
0.032027
0.032027
0.032027
0.021357
0.021357
0.010688
0.000018
0.032027
0.021357
0.042697
0.064036
0.074706
0.085375
0.096045
0.096045
0.032027
0.000018
-0.010652
-0.010652
0.000018
0.010688
0.021357
0.010688
0.010688
0.010688
0.021357
0.021357
0.021357
0.021357
0.010688
0.010688
0.010688
0.000018
0.021357
0.010688
0.064036
0.181402
0.106715
-0.213375
-0.640161
-0.704179
-0.522795
-0.330741
-0.213375
-0.064000
-0.021321
0.021357
0.032027
0.053366
0.053366
0.064036
0.064036
0.042697
0.010688
0.042697
0.042697
0.032027
0.032027
0.021357
0.021357
0.032027
0.032027
0.010688
0.010688
0.000018
-0.010652
-0.042661
-0.021321
-0.031991
-0.053330
-0.064000
-0.064000
-0.064000
-0.074669
-0.085339
-0.096009
-0.085339
-0.064000
-0.053330
-0.042661
0.000018
0.021357
0.010688
0.021357
0.032027
0.042697
0.042697
0.042697
0.042697
0.032027
0.032027
0.032027
0.032027
0.042697
0.042697
0.032027
0.010688
0.021357
0.032027
0.032027
0.042697
0.032027
0.021357
0.010688
0.010688
0.021357
0.032027
0.021357
0.010688
0.021357
0.021357
0.010688
0.010688
0.032027
0.032027
0.021357
0.032027
0.032027
0.021357
0.021357
0.021357
0.021357
0.021357
0.021357
0.021357
0.010688
0.032027
0.021357
0.021357
0.032027
0.010688
0.010688
0.000018
0.010688
-0.010652
0.021357
0.021357
0.032027
0.010688
0.000018
0.021357
0.064036
0.064036
0.085375
0.074706
0.042697
0.010688
0.032027
0.021357
0.010688
0.010688
0.000018
0.021357
0.032027
0.032027
0.000018
0.021357
0.032027
0.042697
0.032027
0.021357
0.032027
0.042697
0.021357
0.053366
0.064036
0.149393
0.128054
0.085375
-0.298732
-0.640161
-0.490786
-0.352080
-0.266723
-0.181366
-0.053330
-0.031991
0.021357
0.053366
0.032027
0.042697
0.042697
0.042697
0.053366
0.042697
0.032027
0.021357
0.042697
0.042697
0.042697
0.032027
0.032027
0.000018
0.000018
0.010688
-0.010652
-0.010652
-0.021321
-0.021321
-0.042661
-0.064000
-0.085339
-0.096009
-0.106678
-0.128018
-0.128018
-0.138687
-0.128018
-0.117348
-0.085339
-0.064000
-0.042661
-0.021321
0.021357
0.021357
0.032027
0.042697
0.053366
0.042697
0.032027
0.032027
0.042697
0.010688
0.010688
0.032027
0.042697
0.021357
0.042697
0.042697
0.010688
0.021357
0.021357
0.021357
0.021357
0.021357
0.021357
0.021357
0.010688
0.010688
0.042697
0.021357
0.021357
0.000018
0.021357
0.032027
0.032027
0.032027
0.021357
0.010688
0.021357
0.021357
0.032027
0.032027
0.032027
0.053366
0.064036
0.042697
0.053366
0.053366
0.032027
0.042697
0.021357
0.032027
0.032027
0.053366
0.042697
0.042697
0.096045
0.096045
0.096045
0.117384
0.096045
0.053366
0.021357
0.032027
0.021357
-0.010652
0.010688
0.021357
0.032027
0.053366
0.053366
0.053366
0.064036
0.042697
0.042697
0.042697
0.032027
0.042697
0.042697
0.032027
0.032027
0.064036
0.170732
0.106715
-0.031991
-0.448107
-0.533464
-0.224045
-0.160027
-0.149357
-0.096009
-0.010652
0.010688
0.064036
0.064036
0.064036
0.064036
0.053366
0.064036
0.053366
0.032027
0.053366
0.042697
0.042697
0.032027
0.010688
0.032027
0.010688
0.000018
-0.010652
-0.031991
-0.021321
-0.042661
-0.064000
-0.074669
-0.074669
-0.085339
-0.096009
-0.106678
-0.096009
-0.128018
-0.117348
-0.106678
-0.106678
-0.074669
-0.074669
-0.031991
-0.031991
-0.010652
-0.021321
0.032027
0.042697
0.021357
0.021357
0.042697
0.042697
0.064036
0.053366
0.064036
0.053366
0.074706
0.053366
0.053366
0.042697
0.042697
0.021357
0.032027
0.021357
0.032027
0.010688
0.010688
0.010688
0.000018
0.000018
0.010688
0.010688
0.000018
0.021357
0.021357
0.032027
0.010688
0.032027
0.021357
0.021357
0.010688
0.021357
0.021357
0.021357
0.021357
0.042697
0.032027
0.010688
0.032027
0.021357
0.021357
0.032027
0.021357
0.021357
-0.010652
0.021357
0.021357
0.032027
0.032027
0.021357
0.053366
0.032027
0.032027
0.053366
0.064036
0.074706
0.106715
0.117384
0.085375
0.021357
-0.021321
-0.010652
-0.010652
0.000018
0.000018
0.010688
0.021357
0.010688
0.010688
0.000018
0.021357
0.021357
0.021357
0.021357
0.010688
0.021357
0.021357
0.042697
0.032027
0.085375
0.160063
0.106715
-0.277393
-0.693509
-0.682840
-0.512125
-0.309402
-0.202705
-0.053330
0.010688
0.021357
0.032027
0.042697
0.042697
0.064036
0.053366
0.042697
0.053366
0.053366
0.053366
0.064036
0.053366
0.042697
0.032027
0.032027
0.042697
0.032027
0.021357
0.010688
0.010688
0.000018
0.000018
-0.010652
-0.031991
-0.042661
-0.042661
-0.064000
-0.074669
-0.085339
-0.085339
-0.085339
-0.042661
-0.031991
-0.010652
0.010688
0.021357
0.032027
0.042697
0.042697
0.042697
0.042697
0.053366
0.021357
0.021357
0.042697
0.032027
0.021357
0.021357
0.021357
0.010688
0.021357
0.021357
0.042697
0.032027
0.042697
0.032027
0.032027
0.032027
0.021357
0.021357
0.021357
0.021357
0.021357
0.010688
0.000018
0.010688
0.010688
0.010688
0.000018
0.010688
0.021357
-0.021321
0.021357
0.010688
0.032027
0.021357
0.021357
0.010688
0.021357
0.010688
0.032027
0.032027
0.021357
0.032027
0.042697
0.032027
0.032027
0.021357
0.021357
0.021357
0.021357
0.042697
0.042697
0.042697
0.074706
0.074706
0.085375
0.085375
0.053366
0.010688
-0.021321
-0.010652
0.010688
0.000018
0.021357
0.021357
0.000018
0.010688
0.010688
0.010688
0.021357
0.032027
0.010688
0.010688
0.000018
0.010688
0.021357
0.010688
0.021357
0.128054
0.128054
0.064036
-0.405429
-0.725518
-0.608152
-0.448107
-0.309402
-0.149357
-0.031991
-0.021321
0.010688
0.021357
0.032027
0.032027
0.032027
0.042697
0.042697
0.053366
0.032027
0.042697
0.032027
0.042697
0.053366
0.032027
0.032027
0.021357
-0.010652
-0.021321
-0.010652
-0.010652
-0.010652
-0.010652
-0.031991
-0.042661
-0.053330
-0.064000
-0.096009
-0.074669
-0.096009
-0.096009
-0.096009
-0.074669
-0.064000
-0.021321
0.000018
-0.010652
0.000018
0.042697
0.000018
0.010688
0.021357
0.032027
0.021357
0.032027
0.032027
0.042697
0.032027
0.032027
0.032027
0.042697
0.032027
0.042697
0.032027
0.032027
0.021357
0.042697
0.042697
0.042697
0.032027
0.032027
0.021357
0.053366
0.042697
0.042697
0.032027
0.042697
0.042697
0.032027
0.032027
0.032027
0.042697
0.064036
0.053366
0.021357
0.010688
0.010688
0.000018
0.010688
0.010688
0.021357
0.032027
0.032027
0.021357
0.021357
0.021357
0.021357
0.010688
0.021357
0.032027
0.032027
0.021357
0.032027
0.010688
0.042697
0.074706
0.085375
0.096045
0.096045
0.042697
0.010688
-0.010652
0.000018
0.021357
0.021357
0.010688
0.010688
0.021357
0.000018
0.021357
0.032027
0.021357
0.042697
0.053366
0.021357
0.032027
0.064036
0.032027
0.042697
0.032027
0.160063
0.128054
0.032027
-0.426768
-0.586813
-0.362750
-0.245384
-0.213375
-0.160027
-0.031991
0.000018
0.021357
0.053366
0.053366
0.053366
0.042697
0.053366
0.053366
0.064036
0.053366
0.032027
0.010688
0.032027
0.021357
0.032027
-0.010652
-0.010652
0.000018
-0.021321
0.000018
-0.042661
-0.031991
-0.042661
-0.074669
-0.096009
-0.085339
-0.138687
-0.128018
-0.138687
-0.160027
-0.138687
-0.128018
-0.096009
-0.064000
-0.042661
-0.031991
-0.021321
0.021357
0.021357
0.032027
0.042697
0.021357
0.032027
0.042697
0.053366
0.042697
0.032027
0.042697
0.042697
0.042697
0.021357
0.021357
0.042697
0.042697
0.042697
0.042697
0.021357
0.010688
-0.010652
0.000018
0.010688
0.000018
0.010688
0.010688
0.010688
0.010688
0.021357
0.042697
0.021357
0.021357
0.032027
0.032027
0.042697
0.032027
0.042697
0.042697
0.042697
0.032027
0.042697
0.032027
0.053366
0.053366
0.053366
0.053366
0.053366
0.053366
0.064036
0.053366
0.053366
0.064036
0.042697
0.053366
0.053366
0.096045
0.085375
0.106715
0.117384
0.085375
0.053366
0.032027
0.010688
0.021357
0.032027
0.042697
0.021357
0.032027
0.042697
0.032027
0.021357
0.032027
0.021357
0.032027
0.042697
0.042697
0.032027
0.042697
0.053366
0.053366
0.117384
0.149393
0.064036
-0.277393
-0.608152
-0.490786
-0.266723
-0.224045
-0.160027
-0.042661
0.000018
0.010688
0.021357
0.042697
0.053366
0.042697
0.042697
0.042697
0.042697
0.032027
0.042697
0.032027
0.032027
0.021357
0.000018
0.010688
0.021357
-0.021321
-0.021321
-0.042661
-0.053330
-0.053330
-0.064000
-0.064000
-0.085339
-0.085339
-0.085339
-0.085339
-0.096009
-0.106678
-0.106678
-0.074669
-0.074669
-0.074669
-0.042661
-0.021321
0.000018
0.000018
0.032027
0.010688
0.032027
0.032027
0.032027
0.032027
0.032027
0.032027
0.032027
0.032027
0.042697
0.032027
0.032027
0.021357
0.032027
0.021357
0.032027
0.042697
0.021357
0.021357
0.021357
0.000018
0.010688
0.021357
0.000018
0.000018
0.010688
0.010688
0.021357
0.010688
0.021357
0.032027
0.021357
0.042697
0.032027
0.021357
0.010688
0.021357
0.042697
0.032027
0.042697
0.032027
0.042697
-0.010652
0.032027
0.042697
0.021357
0.032027
0.010688
0.021357
0.032027
0.032027
0.042697
0.021357
0.010688
0.010688
0.010688
0.032027
0.064036
0.085375
0.085375
0.096045
0.074706
0.010688
-0.010652
-0.021321
0.000018
0.021357
-0.010652
0.010688
0.000018
0.000018
-0.021321
0.000018
0.010688
0.021357
0.021357
0.010688
0.021357
0.021357
0.032027
0.021357
0.021357
0.117384
0.149393
0.117384
-0.298732
-0.693509
-0.640161
-0.490786
-0.309402
-0.181366
-0.042661
-0.021321
0.010688
0.032027
0.053366
0.053366
0.032027
0.042697
0.032027
0.032027
0.042697
0.053366
0.032027
0.042697
0.032027
0.032027
0.010688
0.000018
0.000018
0.000018
-0.010652
0.000018
0.000018
-0.010652
-0.031991
-0.042661
-0.053330
-0.064000
-0.074669
-0.074669
-0.074669
-0.064000
-0.064000
-0.064000
-0.042661
-0.021321
-0.010652
0.010688
0.021357
0.042697
0.032027
0.032027
0.042697
0.021357
0.021357
0.032027
0.053366
0.053366
0.042697
0.042697
0.032027
0.032027
0.042697
0.021357
0.032027
0.042697
0.032027
0.032027
0.042697
0.032027
0.021357
0.032027
0.042697
0.021357
0.032027
0.010688
0.000018
0.021357
0.010688
0.021357
-0.010652
0.021357
0.021357
0.032027
0.042697
0.042697
0.010688
0.021357
0.010688
0.021357
0.000018
0.032027
0.021357
0.032027
0.042697
0.042697
0.032027
0.032027
0.042697
0.032027
0.021357
0.042697
0.010688
0.042697
0.032027
0.032027
0.042697
0.053366
0.096045
0.085375
0.096045
0.085375
0.064036
0.032027
-0.010652
-0.021321
-0.010652
0.000018
0.021357
0.021357
0.010688
0.032027
0.000018
0.021357
0.010688
0.010688
0.010688
0.010688
0.010688
0.000018
0.010688
0.010688
0.032027
0.160063
0.170732
0.096045
-0.426768
-0.693509
-0.576143
-0.416098
-0.288062
-0.149357
-0.042661
0.010688
0.053366
0.064036
0.064036
0.042697
0.053366
0.064036
0.064036
0.042697
0.042697
0.042697
0.053366
0.053366
0.032027
0.064036
0.032027
0.032027
0.032027
0.010688
0.021357
-0.021321
-0.010652
-0.021321
-0.053330
-0.064000
-0.053330
-0.074669
-0.074669
-0.074669
-0.096009
-0.085339
-0.085339
-0.074669
-0.064000
-0.031991
-0.031991
-0.010652
0.010688
0.032027
0.010688
0.032027
0.032027
0.021357
0.010688
0.021357
0.010688
0.010688
0.010688
0.010688
0.010688
0.010688
0.032027
0.042697
0.021357
0.010688
0.021357
0.010688
-0.010652
0.000018
0.010688
0.021357
-0.010652
-0.010652
-0.010652
0.000018
0.010688
0.010688
0.000018
0.021357
0.021357
0.010688
0.010688
0.021357
-0.010652
0.021357
0.010688
0.010688
0.021357
0.010688
0.021357
0.000018
0.021357
0.032027
0.010688
0.021357
0.010688
0.053366
0.010688
0.000018
0.010688
0.000018
-0.010652
0.010688
0.021357
0.053366
0.053366
0.074706
0.074706
0.053366
0.000018
-0.010652
0.000018
-0.021321
0.000018
0.010688
0.032027
0.021357
0.010688
0.021357
0.032027
0.032027
0.021357
0.032027
0.010688
0.021357
0.010688
0.032027
0.010688
0.053366
0.160063
0.128054
0.000018
-0.426768
-0.554804
-0.277393
-0.160027
-0.181366
-0.106678
-0.021321
0.010688
0.042697
0.032027
0.064036
0.074706
0.042697
0.021357
0.032027
0.021357
0.042697
0.010688
0.000018
0.021357
0.021357
0.010688
0.000018
-0.010652
-0.010652
-0.010652
-0.021321
-0.031991
-0.042661
-0.064000
-0.074669
-0.064000
-0.096009
-0.106678
-0.117348
-0.106678
-0.117348
-0.128018
-0.106678
-0.096009
-0.074669
-0.031991
-0.021321
0.021357
0.010688
0.032027
0.042697
0.064036
0.074706
0.053366
0.064036
0.064036
0.064036
0.074706
0.064036
0.053366
0.064036
0.085375
0.074706
0.064036
0.074706
0.074706
0.053366
0.064036
0.064036
0.053366
0.064036
0.064036
0.042697
0.042697
0.064036
0.053366
0.021357
0.032027
0.042697
0.032027
0.032027
0.021357
0.032027
0.032027
0.032027
0.021357
0.032027
0.032027
0.042697
0.064036
0.021357
0.032027
0.042697
0.032027
0.032027
0.042697
0.032027
0.042697
0.021357
0.021357
0.032027
0.021357
0.032027
0.053366
0.106715
0.106715
0.117384
0.117384
0.053366
0.021357
0.021357
0.021357
0.010688
0.032027
0.021357
0.021357
0.010688
0.032027
0.021357
0.021357
0.032027
0.021357
0.021357
0.032027
0.021357
0.010688
0.021357
0.021357
0.032027
0.170732
0.117384
-0.021321
-0.544134
-0.714848
-0.490786
-0.330741
-0.266723
-0.128018
-0.021321
0.000018
0.021357
0.010688
0.021357
0.021357
0.032027
0.042697
0.021357
0.032027
0.042697
0.032027
0.042697
0.042697
0.032027
0.032027
0.032027
0.032027
0.010688
0.010688
-0.010652
0.010688
-0.031991
-0.042661
-0.031991
-0.042661
-0.053330
-0.074669
-0.085339
-0.096009
-0.085339
-0.085339
-0.074669
-0.053330
-0.031991
-0.031991
0.000018
0.021357
0.032027
0.032027
0.032027
0.042697
0.064036
0.053366
0.053366
0.042697
0.032027
0.053366
0.042697
0.042697
0.064036
0.053366
0.053366
0.053366
0.042697
0.042697
0.021357
0.032027
0.021357
0.032027
0.032027
0.032027
0.010688
-0.010652
0.021357
0.010688
0.010688
0.000018
-0.010652
0.000018
0.000018
0.000018
0.010688
0.010688
0.000018
0.021357
0.032027
0.032027
0.032027
0.021357
0.010688
-0.010652
0.010688
0.021357
0.010688
0.021357
0.010688
0.021357
0.000018
0.000018
0.010688
0.032027
0.010688
0.021357
0.021357
0.021357
0.032027
0.053366
0.074706
0.074706
0.053366
0.053366
0.010688
-0.010652
-0.042661
-0.021321
-0.021321
-0.010652
0.010688
0.000018
0.010688
0.000018
0.010688
0.042697
0.021357
0.032027
0.042697
0.042697
0.042697
0.042697
0.032027
0.032027
0.170732
0.170732
0.074706
-0.426768
-0.693509
-0.565473
-0.426768
-0.288062
-0.149357
-0.031991
-0.010652
0.042697
0.042697
0.053366
0.042697
0.042697
0.042697
0.021357
0.032027
0.032027
0.032027
0.032027
0.000018
0.032027
0.021357
0.021357
0.010688
0.000018
0.010688
0.000018
-0.010652
0.000018
-0.021321
-0.031991
-0.053330
-0.053330
-0.074669
-0.096009
-0.085339
-0.096009
-0.096009
-0.096009
-0.053330
-0.042661
-0.031991
-0.010652
0.010688
0.000018
0.010688
0.021357
0.042697
0.042697
0.032027
0.032027
0.042697
0.021357
0.021357
0.064036
0.053366
0.042697
0.064036
0.042697
0.053366
0.053366
0.021357
0.021357
0.032027
0.032027
0.032027
0.032027
0.042697
0.032027
0.010688
0.021357
0.032027
0.042697
0.042697
0.042697
0.010688
0.021357
0.021357
0.010688
0.021357
0.032027
0.053366
0.042697
0.021357
0.032027
0.032027
0.042697
0.042697
0.042697
0.032027
0.021357
0.053366
0.053366
0.053366
0.053366
0.021357
0.032027
0.053366
0.032027
0.010688
0.021357
0.053366
0.085375
0.074706
0.085375
0.085375
0.032027
0.000018
-0.010652
-0.010652
-0.010652
-0.010652
0.000018
0.032027
0.032027
0.000018
0.010688
0.021357
0.032027
0.042697
0.010688
0.032027
0.053366
0.042697
0.042697
0.042697
0.117384
0.149393
0.106715
-0.256054
-0.586813
-0.490786
-0.309402
-0.224045
-0.170696
-0.042661
0.021357
0.021357
0.042697
0.042697
0.053366
0.042697
0.032027
0.032027
0.021357
0.021357
0.032027
0.010688
0.010688
0.021357
0.032027
0.010688
-0.021321
0.000018
-0.021321
-0.031991
-0.064000
-0.053330
-0.053330
-0.064000
-0.085339
-0.096009
-0.117348
-0.128018
-0.106678
-0.128018
-0.138687
-0.138687
-0.106678
-0.096009
-0.053330
-0.042661
-0.010652
0.010688
0.010688
0.010688
0.032027
0.032027
0.042697
0.053366
0.032027
0.053366
0.042697
0.064036
0.053366
0.064036
0.064036
0.053366
0.053366
0.032027
0.032027
0.010688
0.021357
0.032027
0.032027
0.032027
0.021357
0.021357
0.010688
0.042697
0.010688
0.021357
-0.010652
0.021357
0.021357
0.010688
0.032027
0.021357
0.021357
0.042697
0.032027
0.042697
0.021357
0.010688
0.021357
0.032027
0.032027
0.032027
0.053366
0.064036
0.053366
0.053366
0.064036
0.042697
0.064036
0.042697
0.032027
0.074706
0.096045
0.096045
0.106715
0.085375
0.021357
0.010688
0.000018
0.021357
0.010688
0.032027
0.053366
0.053366
0.032027
0.032027
0.021357
0.042697
0.021357
0.021357
0.032027
0.032027
0.053366
0.053366
0.032027
0.032027
0.138724
0.117384
0.032027
-0.309402
-0.576143
-0.394759
-0.192036
-0.181366
-0.170696
-0.064000
-0.010652
0.010688
0.010688
0.021357
0.032027
0.042697
0.032027
0.042697
0.032027
0.053366
0.053366
0.021357
0.042697
0.032027
0.021357
0.010688
0.042697
0.021357
0.000018
-0.031991
-0.010652
-0.021321
-0.042661
-0.053330
-0.074669
-0.085339
-0.085339
-0.117348
-0.128018
-0.106678
-0.117348
-0.096009
-0.053330
-0.064000
-0.021321
-0.010652
-0.010652
-0.010652
0.010688
0.021357
0.042697
0.032027
0.032027
0.032027
0.021357
0.021357
0.032027
0.053366
0.042697
0.021357
0.053366
0.042697
0.010688
0.032027
0.021357
0.021357
0.021357
0.010688
-0.021321
0.021357
0.000018
0.000018
0.010688
0.021357
0.010688
0.000018
0.000018
0.000018
0.000018
0.000018
0.010688
-0.010652
0.021357
0.010688
0.000018
0.042697
0.032027
0.021357
0.021357
0.021357
0.032027
0.021357
0.021357
0.032027
0.042697
0.032027
0.021357
0.042697
0.042697
0.032027
0.032027
0.021357
0.032027
0.021357
0.042697
0.074706
0.074706
0.085375
0.074706
0.064036
0.010688
0.000018
-0.031991
0.010688
0.010688
0.010688
0.032027
0.021357
0.021357
0.021357
0.010688
0.000018
0.021357
0.042697
0.042697
0.032027
0.032027
0.032027
0.042697
0.010688
0.149393
0.149393
0.074706
-0.426768
-0.746857
-0.629491
-0.480116
-0.320071
-0.181366
-0.042661
-0.010652
0.021357
0.021357
0.042697
0.064036
0.053366
0.053366
0.064036
0.074706
0.064036
0.032027
0.053366
0.042697
0.053366
0.053366
0.032027
0.042697
0.042697
0.010688
0.021357
0.010688
0.010688
-0.010652
-0.010652
-0.031991
-0.064000
-0.053330
-0.053330
-0.053330
-0.074669
-0.085339
-0.074669
-0.085339
-0.053330
-0.031991
-0.021321
0.000018
0.010688
0.032027
0.032027
0.053366
0.042697
0.042697
0.042697
0.042697
0.032027
0.021357
0.021357
0.032027
0.032027
0.032027
0.021357
0.021357
0.032027
0.032027
0.032027
0.053366
0.042697
0.053366
0.053366
0.032027
0.053366
0.032027
0.010688
0.010688
0.021357
0.010688
0.042697
0.032027
0.021357
0.000018
0.021357
0.021357
0.010688
0.010688
0.000018
0.021357
0.000018
0.010688
0.010688
0.010688
0.032027
0.021357
0.042697
0.021357
0.021357
0.021357
0.021357
0.032027
0.021357
0.021357
0.021357
0.010688
0.042697
0.042697
0.053366
0.074706
0.085375
0.085375
0.064036
0.042697
0.000018
0.000018
0.000018
0.000018
0.010688
0.032027
0.021357
0.021357
0.010688
0.010688
0.021357
0.032027
0.032027
0.032027
0.021357
0.021357
0.032027
0.032027
0.032027
0.021357
0.160063
0.128054
0.042697
-0.480116
-0.714848
-0.565473
-0.384089
-0.288062
-0.149357
-0.042661
0.000018
0.032027
0.042697
0.053366
0.053366
0.064036
0.053366
0.053366
0.042697
0.064036
0.032027
0.053366
0.032027
0.032027
0.032027
0.042697
0.032027
0.021357
0.021357
0.000018
0.021357
-0.010652
-0.010652
-0.031991
-0.042661
-0.053330
-0.085339
-0.096009
-0.106678
-0.106678
-0.106678
-0.074669
-0.053330
-0.042661
-0.042661
-0.021321
0.010688
0.010688
0.021357
0.042697
0.042697
0.032027
0.032027
0.032027
0.032027
0.042697
0.042697
0.032027
0.042697
0.074706
0.053366
0.053366
0.042697
0.053366
0.032027
0.053366
0.053366
0.042697
0.021357
0.021357
0.021357
0.021357
0.021357
0.032027
0.032027
0.000018
0.000018
0.021357
0.021357
0.032027
0.032027
0.042697
0.021357
0.021357
0.021357
0.042697
0.032027
0.010688
0.010688
0.032027
0.042697
0.032027
0.021357
0.000018
0.032027
0.032027
0.032027
0.021357
0.032027
0.042697
0.032027
0.021357
0.042697
0.053366
0.085375
0.106715
0.117384
0.085375
0.042697
0.000018
0.000018
-0.010652
-0.010652
0.000018
0.000018
0.021357
0.021357
0.000018
0.000018
0.010688
0.032027
0.010688
0.032027
0.021357
0.010688
0.021357
0.010688
0.010688
0.032027
0.149393
0.128054
0.042697
-0.373420
-0.544134
-0.298732
-0.192036
-0.170696
-0.128018
-0.042661
0.000018
0.032027
0.042697
0.042697
0.042697
0.042697
0.021357
0.053366
0.053366
0.064036
0.042697
0.053366
0.042697
0.032027
0.032027
0.021357
0.010688
-0.010652
-0.021321
-0.021321
-0.010652
-0.031991
-0.064000
-0.053330
-0.096009
-0.085339
-0.096009
-0.074669
-0.117348
-0.128018
-0.117348
-0.096009
-0.074669
-0.053330
-0.031991
0.000018
0.010688
0.032027
0.032027
0.053366
0.074706
0.074706
0.064036
0.074706
0.053366
0.074706
0.064036
0.053366
0.053366
0.032027
0.032027
0.053366
0.042697
0.042697
0.021357
0.032027
0.053366
0.021357
0.021357
0.010688
0.010688
0.000018
0.010688
0.021357
0.021357
0.021357
0.000018
0.010688
0.010688
0.021357
0.021357
0.021357
0.021357
0.010688
0.032027
0.032027
0.032027
0.042697
0.032027
0.021357
0.032027
0.021357
0.032027
0.032027
0.021357
0.032027
0.000018
0.032027
0.032027
0.032027
0.032027
0.042697
0.074706
0.074706
0.074706
0.096045
0.074706
0.042697
0.000018
0.010688
0.010688
0.000018
-0.010652
0.000018
0.021357
0.010688
0.021357
0.042697
0.021357
0.042697
0.032027
0.032027
0.042697
0.032027
0.042697
0.010688
0.021357
0.064036
0.138724
0.085375
-0.234714
-0.640161
-0.640161
-0.437438
-0.298732
-0.202705
-0.042661
0.000018
0.042697
0.042697
0.042697
0.032027
0.042697
0.032027
0.042697
0.032027
0.032027
0.021357
0.010688
0.000018
0.021357
0.010688
0.010688
0.021357
0.000018
0.000018
-0.010652
-0.021321
-0.031991
-0.064000
-0.053330
-0.053330
-0.053330
-0.064000
-0.074669
-0.106678
-0.106678
-0.096009
-0.074669
-0.074669
-0.064000
-0.042661
0.000018
0.000018
0.021357
0.021357
0.042697
0.042697
0.021357
0.021357
0.032027
0.032027
0.032027
0.021357
0.032027
0.021357
0.032027
0.021357
0.021357
0.021357
0.021357
0.042697
0.053366
0.042697
0.042697
0.042697
0.021357
0.032027
0.032027
0.053366
0.053366
0.032027
0.032027
0.021357
0.021357
0.021357
0.021357
0.042697
0.032027
0.021357
0.021357
0.000018
0.021357
0.032027
0.042697
0.032027
0.021357
0.032027
0.021357
0.042697
0.042697
