-0.030593
0.000044
-0.010168
0.000044
0.010256
0.000044
0.020468
0.040892
0.010256
-0.010168
-0.010168
0.061317
0.132802
0.153226
-0.183774
-0.745442
-0.296108
-0.081653
0.020468
0.081741
0.153226
0.081741
0.102165
0.112377
0.071529
0.071529
0.051105
0.051105
0.102165
0.081741
0.112377
0.071529
0.071529
0.112377
0.081741
0.071529
0.091953
0.071529
0.091953
0.081741
0.091953
0.091953
0.051105
0.071529
0.061317
0.030680
0.030680
-0.040805
-0.030593
-0.071441
-0.122502
-0.061229
-0.112290
-0.102077
-0.071441
-0.030593
-0.040805
-0.020380
0.020468
-0.020380
0.010256
0.010256
-0.030593
-0.010168
0.020468
-0.010168
0.030680
0.040892
0.030680
0.020468
0.020468
0.010256
0.010256
0.000044
-0.010168
0.000044
0.010256
0.000044
-0.010168
0.010256
0.020468
0.010256
0.020468
0.010256
-0.010168
0.000044
0.040892
-0.020380
-0.010168
-0.030593
-0.010168
-0.030593
-0.010168
-0.010168
0.000044
0.000044
-0.020380
0.020468
0.000044
0.010256
0.020468
0.010256
0.010256
-0.010168
0.030680
0.010256
0.000044
0.010256
-0.020380
-0.010168
0.020468
0.030680
-0.020380
-0.010168
0.020468
-0.010168
-0.020380
-0.010168
0.010256
0.040892
0.040892
-0.061229
-0.081653
-0.061229
-0.091865
-0.071441
-0.030593
-0.010168
0.030680
0.020468
0.020468
0.020468
0.051105
-0.010168
0.000044
0.020468
0.020468
0.020468
0.030680
0.030680
0.010256
0.020468
0.081741
0.173650
-0.020380
-0.765866
-0.479926
-0.214411
-0.010168
0.091953
0.153226
0.091953
0.102165
0.122589
0.102165
0.112377
0.091953
0.102165
0.132802
0.112377
0.112377
0.081741
0.071529
0.071529
0.081741
0.143014
0.081741
0.071529
0.091953
0.071529
0.081741
0.081741
0.071529
0.112377
0.061317
0.020468
0.020468
-0.030593
-0.030593
-0.061229
-0.091865
-0.061229
-0.102077
-0.122502
-0.102077
-0.061229
-0.040805
-0.040805
-0.010168
-0.010168
-0.051017
-0.030593
-0.020380
0.000044
0.000044
-0.010168
0.010256
0.000044
0.000044
0.000044
-0.020380
0.000044
0.010256
0.030680
0.010256
-0.010168
0.010256
0.020468
0.010256
0.020468
0.020468
0.020468
0.000044
0.000044
0.000044
-0.030593
-0.030593
0.000044
0.000044
-0.010168
0.000044
0.010256
-0.040805
-0.030593
-0.051017
-0.030593
-0.030593
0.020468
0.000044
-0.010168
0.000044
-0.010168
-0.010168
0.010256
0.000044
0.000044
0.010256
0.000044
0.000044
0.000044
-0.010168
0.000044
-0.010168
-0.010168
0.000044
0.030680
0.030680
0.020468
0.000044
-0.030593
0.020468
0.000044
-0.091865
-0.122502
-0.091865
-0.102077
-0.061229
-0.030593
-0.020380
0.010256
0.000044
-0.010168
-0.010168
-0.010168
-0.010168
0.010256
0.030680
0.010256
0.030680
0.020468
0.010256
0.020468
0.040892
0.091953
0.163438
-0.173562
-0.776078
-0.418653
-0.214411
0.010256
0.091953
0.153226
0.143014
0.122589
0.112377
0.112377
0.112377
0.081741
0.071529
0.112377
0.102165
0.102165
0.081741
0.102165
0.071529
0.071529
0.122589
0.122589
0.081741
0.112377
0.091953
0.112377
0.081741
0.061317
0.071529
0.051105
0.040892
0.020468
-0.030593
-0.040805
-0.102077
-0.081653
-0.112290
-0.112290
-0.091865
-0.071441
-0.071441
-0.020380
-0.040805
-0.020380
-0.020380
0.000044
0.000044
-0.030593
-0.010168
0.040892
-0.020380
-0.030593
-0.010168
-0.030593
-0.020380
-0.010168
0.010256
0.010256
0.010256
0.010256
0.020468
0.020468
-0.010168
0.010256
0.030680
0.010256
0.010256
0.010256
0.000044
0.000044
-0.030593
-0.010168
-0.010168
-0.010168
-0.010168
-0.020380
0.000044
-0.010168
-0.010168
-0.010168
0.000044
-0.010168
-0.010168
-0.030593
-0.020380
-0.010168
-0.010168
0.020468
-0.051017
0.010256
0.010256
-0.010168
-0.010168
-0.020380
-0.030593
-0.030593
0.000044
-0.010168
0.000044
0.010256
-0.010168
0.000044
0.010256
0.000044
0.000044
-0.010168
0.040892
0.051105
0.000044
-0.071441
-0.112290
-0.112290
-0.071441
-0.061229
-0.051017
-0.061229
-0.030593
-0.030593
-0.030593
-0.010168
0.020468
-0.010168
0.000044
0.020468
0.010256
0.020468
0.010256
-0.030593
0.010256
0.081741
0.143014
0.112377
-0.622896
-0.582048
-0.306320
-0.091865
0.061317
0.132802
0.081741
0.102165
0.122589
0.091953
0.132802
0.132802
0.061317
0.102165
0.081741
0.102165
0.102165
0.102165
0.153226
0.122589
0.061317
0.102165
0.071529
0.102165
0.102165
0.081741
0.102165
0.091953
0.081741
0.051105
0.061317
0.051105
-0.020380
-0.040805
-0.030593
-0.091865
-0.081653
-0.112290
-0.112290
-0.091865
-0.061229
-0.051017
-0.051017
-0.040805
-0.030593
-0.030593
0.000044
0.010256
0.000044
0.000044
-0.020380
0.020468
0.010256
0.000044
-0.010168
0.020468
-0.040805
0.020468
0.030680
0.020468
-0.010168
0.010256
0.010256
0.020468
0.000044
0.010256
0.000044
0.000044
0.000044
-0.020380
0.010256
-0.010168
0.010256
0.010256
0.010256
-0.010168
-0.020380
0.000044
0.010256
-0.020380
-0.010168
-0.051017
0.000044
-0.020380
-0.030593
0.010256
0.000044
-0.010168
-0.020380
-0.010168
-0.051017
-0.040805
-0.020380
-0.040805
-0.010168
-0.010168
0.000044
-0.071441
-0.010168
-0.010168
-0.010168
-0.020380
0.010256
0.010256
0.030680
0.061317
-0.040805
-0.071441
-0.112290
-0.091865
-0.091865
-0.071441
-0.020380
-0.040805
-0.040805
0.020468
-0.020380
0.000044
0.000044
0.000044
0.010256
0.010256
0.030680
0.010256
0.000044
0.000044
0.040892
0.102165
0.143014
0.122589
-0.510563
-0.602472
-0.112290
-0.010168
0.030680
0.132802
0.153226
0.051105
0.102165
0.102165
0.112377
0.122589
0.071529
0.102165
0.091953
0.122589
0.112377
0.081741
0.112377
0.112377
0.071529
0.122589
0.051105
0.081741
0.071529
0.071529
0.091953
0.061317
0.040892
0.071529
0.020468
0.000044
-0.030593
-0.061229
-0.091865
-0.122502
-0.102077
-0.091865
-0.112290
-0.071441
-0.071441
-0.051017
-0.061229
-0.020380
0.020468
0.030680
-0.010168
-0.061229
0.000044
-0.040805
0.010256
-0.010168
0.000044
0.010256
0.020468
0.010256
0.020468
0.020468
0.000044
0.020468
0.010256
0.010256
-0.030593
-0.020380
0.040892
0.000044
0.000044
-0.040805
0.010256
-0.020380
-0.010168
-0.030593
0.000044
0.000044
-0.040805
-0.010168
-0.040805
-0.010168
-0.040805
-0.020380
-0.010168
-0.010168
0.010256
0.010256
-0.010168
-0.010168
0.000044
-0.010168
-0.020380
-0.051017
0.020468
0.010256
0.000044
-0.010168
-0.010168
0.000044
0.020468
0.020468
-0.010168
-0.010168
-0.020380
-0.020380
-0.010168
0.030680
0.020468
0.000044
0.051105
-0.051017
-0.071441
-0.071441
-0.071441
-0.091865
-0.030593
-0.010168
-0.010168
-0.020380
0.010256
-0.020380
0.000044
0.010256
0.040892
0.000044
0.030680
0.030680
0.020468
0.020468
0.030680
0.040892
0.071529
0.143014
0.153226
-0.275684
-0.714805
-0.265472
-0.132714
0.020468
0.122589
0.112377
0.091953
0.102165
0.091953
0.051105
0.091953
0.071529
0.091953
0.091953
0.051105
0.091953
0.081741
0.061317
0.081741
0.051105
0.112377
0.091953
0.112377
0.112377
0.091953
0.081741
0.061317
0.040892
0.040892
0.030680
0.030680
-0.040805
-0.030593
-0.040805
-0.061229
-0.091865
-0.122502
-0.122502
-0.091865
-0.112290
-0.071441
-0.040805
-0.010168
0.000044
0.000044
-0.010168
0.030680
-0.020380
0.000044
0.020468
0.000044
0.010256
0.020468
0.020468
-0.020380
-0.020380
-0.020380
0.020468
0.020468
0.020468
0.000044
0.010256
0.020468
0.040892
0.020468
0.000044
0.000044
0.010256
-0.010168
0.010256
0.000044
-0.010168
0.030680
0.000044
-0.010168
-0.010168
-0.010168
-0.010168
0.010256
0.000044
0.000044
-0.010168
0.000044
-0.020380
-0.020380
-0.010168
-0.010168
0.000044
0.020468
0.020468
-0.030593
0.010256
-0.020380
-0.020380
0.000044
-0.030593
0.000044
-0.030593
-0.030593
0.010256
0.010256
0.020468
-0.030593
-0.010168
-0.020380
-0.010168
0.000044
0.040892
0.051105
-0.040805
-0.071441
-0.081653
-0.091865
-0.081653
-0.051017
-0.030593
-0.040805
-0.020380
0.000044
-0.020380
0.020468
0.010256
0.010256
0.010256
-0.010168
0.020468
0.020468
0.030680
0.020468
0.040892
0.061317
0.112377
0.183862
-0.296108
-0.765866
-0.418653
-0.214411
0.010256
0.102165
0.153226
0.112377
0.091953
0.081741
0.091953
0.102165
0.071529
0.091953
0.102165
0.132802
0.112377
0.040892
0.091953
0.112377
0.122589
0.112377
0.102165
0.112377
0.112377
0.091953
0.112377
0.091953
0.071529
0.071529
0.040892
0.010256
0.010256
-0.061229
-0.010168
-0.091865
-0.081653
-0.112290
-0.122502
-0.091865
-0.112290
-0.051017
-0.040805
-0.040805
-0.020380
0.000044
0.000044
0.040892
-0.051017
0.000044
0.040892
0.030680
0.000044
0.020468
0.010256
0.051105
0.030680
0.000044
0.020468
0.010256
0.010256
0.020468
0.030680
-0.010168
0.040892
0.030680
0.000044
0.020468
0.000044
-0.030593
0.000044
0.020468
0.010256
-0.010168
-0.010168
0.030680
0.010256
-0.020380
-0.020380
-0.020380
-0.010168
-0.010168
0.000044
-0.010168
0.000044
0.000044
0.000044
-0.010168
-0.010168
0.010256
0.030680
-0.020380
-0.010168
-0.020380
0.010256
0.000044
0.010256
-0.030593
-0.051017
-0.020380
-0.010168
-0.040805
-0.051017
-0.030593
-0.030593
-0.020380
-0.030593
-0.010168
-0.020380
0.000044
-0.010168
0.000044
0.000044
0.051105
0.051105
-0.020380
-0.071441
-0.091865
-0.061229
-0.122502
-0.051017
-0.020380
-0.010168
-0.010168
-0.010168
0.010256
0.000044
0.010256
0.040892
0.010256
0.030680
0.051105
0.040892
0.020468
0.040892
0.040892
0.051105
0.122589
0.143014
-0.051017
-0.776078
-0.520775
-0.306320
-0.020380
0.081741
0.153226
0.091953
0.132802
0.132802
0.091953
0.112377
0.091953
0.061317
0.122589
0.071529
0.102165
0.091953
0.112377
0.091953
0.051105
0.071529
0.091953
0.091953
0.112377
0.081741
0.071529
0.081741
0.061317
0.071529
0.040892
0.040892
0.030680
-0.061229
-0.051017
-0.051017
-0.091865
-0.112290
-0.112290
-0.081653
-0.102077
-0.071441
-0.040805
-0.030593
-0.030593
-0.030593
-0.010168
0.010256
0.000044
0.000044
-0.010168
-0.020380
0.010256
0.020468
0.030680
-0.010168
0.030680
0.020468
0.020468
0.000044
0.010256
0.010256
0.020468
0.030680
0.030680
0.030680
0.030680
0.061317
0.000044
0.010256
0.020468
0.040892
-0.010168
-0.010168
-0.010168
0.000044
-0.010168
0.040892
0.020468
-0.020380
-0.020380
-0.010168
-0.020380
-0.020380
0.000044
0.020468
0.000044
0.020468
0.000044
-0.020380
0.000044
0.000044
0.000044
-0.010168
-0.030593
-0.010168
0.010256
0.030680
0.010256
0.010256
-0.010168
0.020468
0.030680
0.030680
-0.010168
-0.010168
0.000044
-0.010168
0.000044
0.000044
-0.030593
0.020468
0.010256
0.040892
0.051105
0.061317
-0.061229
-0.081653
-0.081653
-0.081653
-0.051017
-0.061229
-0.030593
-0.010168
-0.010168
0.000044
-0.030593
0.000044
-0.010168
0.030680
0.010256
-0.010168
0.020468
0.000044
0.010256
0.000044
0.040892
0.122589
0.163438
0.000044
-0.745442
-0.500351
-0.296108
-0.030593
0.040892
0.173650
0.091953
0.102165
0.112377
0.091953
0.122589
0.081741
0.091953
0.091953
0.081741
0.091953
0.122589
0.091953
0.081741
0.071529
0.102165
0.102165
0.102165
0.091953
0.061317
0.071529
0.091953
0.071529
0.071529
0.040892
0.010256
0.010256
-0.020380
0.000044
-0.081653
-0.071441
-0.081653
-0.122502
-0.102077
-0.091865
-0.081653
-0.061229
-0.030593
-0.010168
-0.010168
-0.010168
0.000044
-0.020380
0.030680
0.030680
-0.010168
0.010256
0.010256
0.010256
0.000044
-0.010168
0.010256
0.030680
0.051105
0.051105
0.020468
0.010256
0.030680
0.030680
0.000044
0.030680
0.010256
0.020468
-0.010168
0.000044
0.010256
-0.010168
0.000044
0.000044
0.000044
0.010256
-0.020380
-0.010168
0.010256
0.010256
0.030680
-0.010168
0.000044
-0.020380
0.000044
-0.020380
-0.020380
0.010256
0.000044
-0.040805
-0.051017
0.000044
-0.030593
-0.020380
-0.020380
-0.030593
-0.020380
-0.010168
-0.010168
-0.020380
-0.030593
-0.040805
0.010256
0.010256
-0.020380
-0.051017
0.020468
0.040892
0.020468
0.030680
0.051105
0.010256
-0.071441
-0.102077
-0.081653
-0.102077
-0.061229
-0.020380
-0.020380
-0.040805
-0.030593
-0.040805
0.000044
0.000044
0.010256
0.010256
0.000044
0.000044
-0.010168
0.000044
0.030680
0.020468
0.040892
0.112377
0.132802
-0.071441
-0.765866
-0.326744
-0.112290
0.010256
0.040892
0.132802
0.091953
0.122589
0.112377
0.071529
0.112377
0.081741
0.061317
0.112377
0.061317
0.091953
0.143014
0.081741
0.071529
0.081741
0.102165
0.040892
0.081741
0.102165
0.061317
0.071529
0.102165
0.051105
0.040892
0.000044
0.010256
-0.030593
-0.030593
-0.040805
-0.102077
-0.091865
-0.112290
-0.153138
-0.091865
-0.091865
-0.091865
-0.081653
-0.030593
-0.040805
-0.010168
-0.030593
0.000044
-0.020380
0.000044
-0.020380
-0.030593
0.010256
0.000044
0.000044
0.030680
0.020468
0.000044
0.010256
-0.030593
0.010256
-0.030593
-0.010168
-0.010168
-0.010168
0.040892
0.010256
0.020468
0.000044
-0.010168
0.000044
0.000044
-0.020380
0.000044
-0.030593
0.000044
-0.010168
-0.030593
-0.010168
-0.010168
0.010256
0.000044
-0.010168
0.000044
-0.010168
0.000044
-0.010168
0.000044
0.020468
-0.010168
-0.020380
0.020468
-0.030593
-0.071441
-0.020380
-0.040805
-0.010168
-0.010168
-0.010168
-0.010168
-0.030593
-0.020380
-0.020380
0.000044
-0.020380
-0.010168
0.000044
-0.040805
-0.030593
0.061317
0.020468
-0.061229
-0.132714
-0.091865
-0.122502
-0.102077
-0.040805
-0.010168
-0.020380
-0.051017
-0.040805
-0.010168
0.061317
-0.020380
-0.020380
0.010256
0.010256
0.030680
0.000044
-0.010168
0.010256
0.040892
0.091953
0.112377
0.102165
-0.673957
-0.510563
-0.163350
-0.051017
0.020468
0.102165
0.091953
0.091953
0.112377
0.091953
0.091953
0.061317
0.071529
0.112377
0.102165
0.102165
0.132802
0.071529
0.102165
0.081741
0.071529
0.132802
0.081741
0.132802
0.102165
0.081741
0.112377
0.071529
0.091953
0.061317
0.030680
0.010256
-0.020380
-0.010168
-0.020380
-0.051017
-0.112290
-0.132714
-0.081653
-0.040805
-0.091865
-0.071441
-0.030593
-0.040805
-0.010168
0.000044
-0.010168
-0.020380
0.010256
0.040892
0.000044
0.000044
0.010256
0.000044
-0.010168
0.030680
0.040892
-0.010168
0.020468
0.010256
0.000044
-0.010168
-0.010168
0.010256
-0.010168
-0.020380
-0.030593
0.000044
-0.030593
-0.020380
0.030680
0.020468
0.000044
-0.030593
0.000044
-0.020380
-0.020380
0.010256
0.030680
0.000044
-0.010168
0.000044
0.010256
0.010256
0.010256
0.030680
-0.010168
-0.010168
-0.010168
0.000044
-0.020380
-0.010168
0.020468
-0.051017
-0.030593
0.010256
0.020468
0.000044
0.000044
-0.010168
-0.020380
-0.030593
-0.010168
-0.020380
0.010256
0.000044
0.020468
-0.030593
0.010256
-0.020380
0.010256
0.030680
-0.010168
-0.112290
-0.142926
-0.061229
-0.081653
-0.081653
0.000044
0.000044
-0.020380
-0.010168
-0.030593
0.000044
0.000044
-0.010168
0.040892
0.000044
-0.010168
-0.020380
-0.020380
-0.010168
0.010256
0.051105
0.143014
0.194074
-0.142926
-0.755654
-0.418653
-0.204199
0.030680
0.102165
0.194074
0.112377
0.112377
0.112377
0.102165
0.132802
0.112377
0.112377
0.091953
0.081741
0.132802
0.143014
0.081741
0.122589
0.091953
0.091953
0.091953
0.122589
0.102165
0.071529
0.091953
0.020468
0.081741
0.132802
0.051105
0.020468
0.010256
-0.020380
-0.040805
-0.071441
-0.112290
-0.122502
-0.132714
-0.081653
-0.102077
-0.112290
-0.081653
-0.051017
0.000044
-0.030593
-0.030593
-0.030593
-0.030593
-0.020380
-0.010168
0.020468
0.020468
0.000044
-0.020380
0.071529
0.000044
0.030680
0.010256
0.020468
0.010256
-0.010168
-0.010168
0.030680
0.010256
0.020468
0.000044
-0.010168
0.010256
0.020468
0.000044
-0.020380
-0.010168
-0.010168
-0.061229
0.000044
-0.010168
0.000044
0.010256
0.010256
-0.061229
0.030680
0.000044
-0.010168
0.000044
-0.030593
-0.030593
0.000044
-0.020380
-0.010168
-0.010168
0.000044
0.020468
-0.040805
-0.020380
0.000044
-0.010168
-0.040805
-0.010168
0.020468
-0.010168
0.010256
-0.030593
0.000044
-0.020380
-0.020380
-0.010168
0.000044
0.010256
-0.030593
-0.020380
-0.010168
0.020468
0.010256
0.010256
0.040892
0.010256
-0.040805
-0.122502
-0.091865
-0.061229
-0.091865
-0.051017
-0.030593
0.020468
0.010256
-0.030593
0.030680
-0.010168
0.000044
-0.030593
0.020468
0.020468
0.030680
0.030680
0.020468
-0.030593
-0.020380
0.112377
0.112377
0.102165
-0.622896
-0.684169
-0.336956
-0.061229
0.030680
0.132802
0.143014
0.122589
0.143014
0.143014
0.132802
0.122589
0.102165
0.132802
0.153226
0.132802
0.081741
0.071529
0.102165
0.061317
0.081741
0.102165
0.061317
0.132802
0.112377
0.071529
0.143014
0.163438
0.102165
0.010256
0.030680
0.000044
0.010256
-0.051017
-0.020380
-0.112290
-0.051017
-0.040805
-0.081653
-0.071441
-0.081653
-0.112290
-0.051017
-0.020380
-0.040805
-0.040805
0.030680
0.000044
0.071529
0.040892
-0.030593
0.000044
0.010256
0.030680
-0.020380
-0.061229
0.030680
-0.030593
-0.010168
0.040892
-0.030593
-0.020380
0.040892
-0.071441
0.000044
-0.020380
0.061317
0.000044
0.010256
0.040892
0.030680
0.020468
0.010256
0.051105
0.061317
-0.010168
-0.061229
-0.061229
0.030680
0.051105
0.030680
-0.051017
-0.010168
-0.010168
-0.010168
0.000044
0.051105
0.020468
-0.020380
-0.051017
-0.020380
-0.030593
0.000044
0.071529
-0.030593
-0.010168
-0.051017
-0.010168
0.000044
0.010256
-0.020380
0.010256
0.000044
-0.020380
-0.020380
-0.020380
-0.020380
-0.030593
-0.010168
0.010256
0.020468
0.040892
0.071529
0.020468
-0.081653
-0.091865
-0.051017
-0.061229
-0.061229
0.040892
0.040892
-0.051017
-0.020380
0.000044
0.010256
0.020468
0.030680
0.020468
0.010256
0.010256
0.051105
0.030680
-0.030593
0.000044
0.051105
0.102165
0.153226
0.163438
-0.571835
-0.592260
-0.224623
-0.132714
0.020468
0.091953
0.112377
0.081741
0.132802
0.091953
0.102165
0.143014
0.071529
0.112377
0.132802
0.091953
0.132802
0.132802
0.112377
0.081741
0.071529
0.122589
0.091953
0.112377
0.132802
0.091953
0.102165
0.040892
0.091953
0.112377
0.071529
0.051105
-0.040805
-0.030593
-0.061229
-0.122502
-0.112290
-0.102077
-0.112290
-0.081653
-0.071441
-0.061229
-0.030593
-0.030593
-0.020380
0.010256
-0.040805
-0.020380
-0.030593
-0.030593
0.020468
-0.020380
-0.030593
0.020468
0.010256
0.020468
0.061317
0.061317
0.020468
0.020468
0.051105
0.010256
0.081741
0.020468
0.030680
0.010256
0.020468
0.000044
0.000044
-0.010168
0.000044
-0.020380
0.000044
-0.020380
-0.020380
-0.030593
-0.030593
0.020468
0.051105
0.020468
0.000044
-0.040805
-0.010168
-0.051017
-0.010168
0.000044
-0.030593
-0.040805
-0.040805
-0.030593
-0.040805
-0.020380
-0.040805
-0.030593
-0.051017
0.020468
0.010256
0.010256
-0.061229
-0.040805
-0.020380
-0.020380
0.000044
-0.010168
-0.020380
0.010256
0.000044
0.030680
0.030680
-0.020380
-0.061229
-0.102077
-0.071441
-0.122502
-0.102077
-0.040805
-0.051017
0.000044
0.000044
-0.020380
-0.020380
0.000044
-0.020380
0.020468
0.020468
0.051105
0.020468
-0.020380
0.020468
0.061317
0.051105
0.112377
0.102165
0.132802
-0.571835
-0.571835
-0.122502
-0.051017
0.010256
0.143014
0.143014
0.061317
0.112377
0.081741
0.081741
0.102165
0.102165
0.122589
0.081741
0.071529
0.132802
0.102165
0.071529
0.071529
0.051105
0.081741
0.040892
0.091953
0.081741
0.051105
0.071529
0.040892
0.051105
0.040892
0.030680
0.010256
-0.020380
-0.030593
-0.040805
-0.081653
-0.122502
-0.122502
-0.091865
-0.071441
-0.071441
-0.091865
-0.081653
-0.061229
-0.020380
-0.051017
-0.010168
0.010256
-0.010168
0.000044
-0.030593
-0.051017
0.010256
0.000044
-0.010168
-0.040805
0.010256
0.010256
-0.010168
0.040892
0.010256
-0.010168
-0.010168
0.030680
-0.010168
-0.030593
-0.030593
0.000044
-0.030593
0.000044
-0.010168
-0.030593
-0.010168
-0.071441
-0.020380
-0.010168
-0.020380
-0.040805
-0.051017
-0.040805
-0.030593
-0.020380
-0.051017
-0.030593
-0.020380
-0.051017
-0.040805
-0.051017
-0.030593
-0.010168
-0.020380
-0.091865
-0.040805
-0.040805
-0.010168
-0.030593
-0.020380
-0.020380
-0.010168
-0.020380
-0.010168
-0.030593
0.000044
-0.010168
-0.040805
-0.020380
0.020468
0.030680
0.010256
0.020468
-0.040805
-0.122502
-0.091865
-0.112290
-0.091865
-0.040805
-0.020380
-0.020380
0.000044
0.010256
0.010256
0.020468
0.040892
0.030680
0.020468
0.000044
0.000044
0.020468
0.010256
-0.020380
0.010256
0.061317
0.112377
0.183862
-0.234835
-0.725017
-0.296108
-0.091865
0.020468
0.132802
0.153226
0.112377
0.143014
0.112377
0.061317
0.091953
0.091953
0.071529
0.102165
0.091953
0.112377
0.081741
0.091953
0.091953
0.061317
0.102165
0.102165
0.102165
0.102165
0.061317
0.112377
0.102165
0.051105
0.061317
0.030680
0.030680
0.020468
0.000044
-0.040805
-0.071441
-0.071441
-0.102077
-0.081653
-0.112290
-0.081653
-0.051017
-0.051017
-0.030593
-0.020380
-0.020380
0.010256
0.000044
-0.051017
0.010256
-0.020380
-0.010168
0.010256
0.030680
0.010256
0.010256
0.010256
0.030680
0.000044
-0.020380
0.000044
0.030680
0.030680
0.000044
0.040892
0.040892
0.000044
-0.020380
0.030680
0.010256
0.010256
0.030680
-0.010168
0.000044
0.000044
-0.020380
-0.010168
0.010256
0.020468
-0.030593
-0.010168
0.010256
0.020468
-0.010168
-0.030593
0.030680
0.010256
-0.030593
-0.020380
-0.010168
-0.010168
0.000044
-0.010168
0.000044
-0.030593
0.000044
0.000044
0.000044
-0.010168
-0.030593
-0.010168
-0.010168
0.000044
0.020468
0.010256
0.020468
-0.020380
-0.010168
-0.020380
-0.010168
0.030680
0.051105
-0.040805
-0.112290
-0.112290
-0.091865
-0.102077
-0.051017
-0.020380
-0.030593
-0.040805
-0.020380
0.020468
0.020468
0.000044
0.000044
0.010256
0.040892
0.010256
0.000044
0.030680
0.000044
0.010256
0.071529
0.081741
0.163438
-0.285896
-0.786290
-0.439078
-0.204199
0.000044
0.102165
0.173650
0.081741
0.122589
0.122589
0.122589
0.112377
0.091953
0.112377
0.081741
0.081741
0.132802
0.102165
0.112377
0.122589
0.102165
0.102165
0.112377
0.102165
0.112377
0.091953
0.122589
0.091953
0.051105
0.122589
0.071529
0.051105
0.030680
0.030680
-0.020380
-0.051017
-0.091865
-0.091865
-0.112290
-0.091865
-0.091865
-0.071441
-0.071441
-0.061229
-0.020380
-0.030593
-0.020380
0.000044
0.010256
-0.020380
-0.010168
-0.020380
-0.010168
0.000044
0.010256
-0.030593
-0.010168
0.000044
0.010256
0.010256
-0.010168
-0.020380
0.010256
-0.030593
0.020468
0.020468
0.040892
0.030680
0.020468
0.020468
0.020468
0.010256
0.010256
0.020468
-0.020380
-0.020380
-0.010168
0.000044
0.000044
-0.061229
0.000044
0.000044
0.000044
-0.010168
0.020468
0.000044
-0.010168
-0.010168
0.010256
0.000044
0.000044
-0.030593
-0.030593
-0.030593
-0.020380
0.020468
-0.071441
-0.051017
0.010256
-0.010168
-0.040805
-0.010168
-0.020380
-0.030593
-0.030593
0.000044
0.020468
-0.010168
0.000044
0.040892
0.010256
-0.081653
-0.081653
-0.091865
-0.081653
-0.071441
-0.040805
-0.020380
-0.010168
0.010256
0.010256
-0.020380
-0.010168
0.000044
-0.010168
0.000044
0.000044
0.010256
0.000044
0.000044
0.010256
0.010256
0.061317
0.091953
0.102165
-0.622896
-0.612684
-0.347169
-0.102077
0.010256
0.122589
0.132802
0.081741
0.112377
0.112377
0.112377
0.102165
0.061317
0.112377
0.081741
0.091953
0.102165
0.071529
0.112377
0.051105
0.112377
0.112377
0.122589
0.143014
0.091953
0.102165
0.132802
0.112377
0.081741
0.091953
0.071529
0.051105
0.010256
0.000044
-0.030593
-0.071441
-0.102077
-0.122502
-0.102077
-0.091865
-0.071441
-0.071441
-0.051017
-0.010168
-0.030593
0.000044
0.010256
0.020468
0.000044
0.000044
-0.010168
0.010256
0.010256
0.000044
0.010256
0.020468
0.030680
0.000044
0.051105
0.051105
0.051105
-0.010168
0.030680
0.040892
0.040892
0.030680
0.040892
0.040892
0.020468
0.030680
0.000044
0.010256
0.030680
0.040892
0.010256
-0.010168
0.010256
0.010256
-0.020380
0.010256
-0.010168
0.010256
0.051105
0.000044
0.010256
0.000044
0.010256
-0.030593
-0.020380
-0.010168
0.020468
-0.010168
-0.020380
0.000044
0.000044
0.000044
-0.010168
0.000044
-0.010168
-0.010168
0.000044
-0.010168
-0.020380
-0.030593
0.020468
-0.020380
-0.020380
0.030680
0.071529
-0.030593
-0.102077
-0.102077
-0.091865
-0.081653
-0.051017
-0.020380
0.010256
0.000044
0.000044
0.020468
0.000044
0.010256
-0.010168
0.020468
0.010256
0.020468
0.010256
0.020468
0.010256
0.010256
0.102165
0.122589
0.163438
-0.377805
-0.673957
-0.296108
-0.132714
0.010256
0.112377
0.122589
0.071529
0.102165
0.102165
0.091953
0.091953
0.061317
0.102165
0.112377
0.112377
0.112377
0.081741
0.081741
0.122589
0.071529
0.071529
0.040892
0.071529
0.091953
0.061317
0.091953
0.081741
0.061317
0.061317
0.020468
0.020468
0.000044
-0.030593
-0.071441
-0.091865
-0.122502
-0.132714
-0.142926
-0.112290
-0.071441
-0.061229
-0.071441
-0.081653
0.000044
0.000044
-0.020380
-0.020380
-0.030593
0.000044
-0.010168
-0.010168
-0.020380
-0.030593
-0.030593
0.000044
0.000044
0.000044
-0.020380
0.020468
0.030680
0.020468
0.010256
0.000044
0.030680
0.000044
0.010256
0.010256
-0.010168
0.010256
0.020468
0.010256
-0.020380
-0.030593
0.000044
0.000044
0.010256
0.000044
-0.010168
-0.030593
-0.010168
0.000044
0.010256
0.030680
-0.020380
-0.010168
0.030680
0.000044
0.000044
0.000044
0.000044
0.000044
-0.020380
-0.020380
0.000044
-0.020380
-0.010168
0.020468
-0.020380
-0.010168
0.010256
0.030680
0.000044
0.020468
0.051105
0.051105
-0.030593
-0.081653
-0.071441
-0.091865
-0.091865
-0.010168
0.000044
0.010256
0.000044
-0.030593
-0.030593
-0.020380
-0.030593
0.000044
0.030680
0.030680
-0.030593
0.030680
0.000044
0.000044
0.040892
0.122589
0.143014
0.061317
-0.694381
-0.469714
-0.122502
-0.020380
0.010256
0.102165
0.112377
0.112377
0.091953
0.081741
0.102165
0.061317
0.081741
0.132802
0.061317
0.112377
0.102165
0.091953
0.132802
0.091953
0.040892
0.091953
0.061317
0.102165
0.081741
0.071529
0.081741
0.051105
0.071529
0.071529
0.010256
-0.010168
-0.051017
-0.071441
-0.081653
-0.122502
-0.122502
-0.142926
-0.122502
-0.122502
-0.102077
-0.071441
0.051105
-0.030593
-0.020380
-0.040805
-0.040805
-0.030593
-0.061229
0.010256
-0.010168
-0.020380
-0.061229
-0.040805
0.020468
0.020468
0.010256
0.010256
0.010256
-0.010168
-0.071441
-0.040805
0.000044
0.030680
0.030680
-0.010168
0.030680
0.010256
-0.020380
0.030680
0.020468
0.000044
0.040892
-0.040805
0.020468
0.020468
-0.051017
-0.061229
-0.061229
-0.081653
-0.030593
-0.010168
-0.020380
0.010256
-0.020380
-0.030593
-0.020380
0.010256
-0.040805
0.010256
0.000044
-0.010168
-0.040805
-0.030593
-0.030593
0.000044
0.000044
-0.020380
-0.010168
0.051105
0.040892
-0.030593
-0.132714
-0.132714
-0.051017
-0.102077
-0.102077
-0.040805
0.030680
0.010256
0.000044
0.000044
0.010256
0.030680
0.020468
-0.010168
0.020468
0.030680
0.040892
0.030680
-0.010168
0.000044
0.051105
0.132802
0.163438
-0.122502
-0.735230
-0.306320
-0.071441
-0.020380
0.122589
0.163438
0.112377
0.081741
0.071529
0.091953
0.112377
0.102165
0.112377
0.122589
0.051105
0.061317
0.132802
0.051105
0.061317
0.153226
0.122589
0.071529
0.081741
0.040892
0.020468
0.010256
0.051105
0.051105
0.112377
-0.051017
0.010256
0.020468
-0.020380
-0.071441
-0.091865
-0.142926
-0.061229
-0.142926
-0.091865
-0.081653
-0.061229
-0.030593
-0.010168
-0.040805
-0.051017
-0.081653
0.000044
-0.030593
-0.040805
-0.010168
-0.020380
-0.030593
-0.010168
0.010256
0.020468
0.020468
0.020468
0.061317
0.010256
-0.010168
0.000044
0.030680
-0.020380
-0.020380
0.010256
-0.051017
-0.030593
-0.061229
0.000044
0.030680
0.010256
-0.010168
0.010256
-0.020380
-0.020380
-0.051017
-0.030593
0.000044
0.030680
0.000044
0.010256
-0.020380
-0.010168
0.040892
-0.040805
-0.081653
-0.010168
-0.040805
-0.051017
-0.010168
0.000044
-0.051017
-0.030593
-0.020380
-0.051017
-0.040805
-0.040805
-0.030593
0.020468
0.000044
-0.030593
-0.010168
-0.020380
-0.091865
-0.112290
-0.102077
-0.112290
-0.081653
-0.020380
-0.010168
-0.030593
-0.030593
0.010256
-0.010168
-0.020380
0.000044
-0.030593
0.000044
-0.010168
-0.010168
0.000044
-0.010168
0.000044
0.051105
0.112377
0.173650
-0.418653
-0.735230
-0.316532
-0.132714
-0.010168
0.081741
0.132802
0.102165
0.081741
0.071529
0.081741
0.081741
0.040892
0.051105
0.081741
0.081741
0.081741
0.071529
0.061317
0.194074
0.102165
0.071529
0.051105
0.091953
0.081741
0.102165
0.122589
0.112377
0.112377
0.122589
0.081741
0.061317
0.010256
-0.010168
-0.020380
0.010256
-0.040805
-0.122502
-0.112290
-0.081653
-0.081653
0.000044
-0.071441
-0.020380
-0.040805
-0.020380
-0.020380
0.000044
0.010256
0.010256
0.010256
0.000044
0.051105
0.020468
0.010256
0.010256
0.020468
0.030680
0.010256
0.020468
0.020468
0.030680
0.040892
0.061317
0.071529
0.061317
0.040892
0.010256
0.030680
0.051105
0.000044
0.010256
0.010256
0.010256
-0.010168
0.010256
0.010256
-0.020380
-0.010168
-0.010168
0.000044
-0.010168
0.000044
0.010256
-0.010168
0.020468
-0.010168
-0.010168
0.000044
0.010256
0.010256
0.000044
0.040892
-0.030593
-0.010168
0.020468
0.030680
0.020468
0.010256
0.061317
0.030680
-0.051017
-0.091865
-0.040805
-0.081653
-0.061229
-0.020380
-0.030593
0.051105
0.020468
-0.010168
-0.040805
-0.010168
0.010256
0.091953
0.030680
-0.040805
-0.030593
-0.010168
0.040892
-0.010168
0.081741
0.081741
0.132802
0.122589
-0.653532
-0.622896
-0.336956
-0.081653
0.102165
0.173650
0.122589
0.112377
0.132802
0.071529
0.132802
0.132802
0.071529
0.153226
0.030680
0.112377
0.143014
0.071529
0.071529
0.122589
0.163438
0.091953
0.091953
0.091953
0.143014
0.153226
0.102165
0.051105
0.071529
0.102165
0.051105
0.051105
-0.010168
-0.030593
-0.040805
-0.071441
-0.071441
-0.142926
-0.030593
-0.061229
-0.102077
-0.102077
-0.061229
-0.051017
0.000044
-0.010168
-0.020380
-0.010168
0.000044
0.020468
-0.020380
0.020468
0.000044
-0.020380
0.010256
0.010256
0.000044
0.000044
0.020468
0.051105
0.030680
0.030680
-0.020380
0.051105
0.030680
0.020468
0.010256
0.000044
0.010256
0.000044
0.051105
0.040892
0.010256
-0.010168
0.020468
0.030680
0.010256
0.010256
0.010256
0.030680
0.010256
-0.010168
0.000044
-0.010168
-0.010168
-0.030593
0.030680
0.030680
0.051105
-0.030593
0.000044
-0.020380
-0.020380
-0.030593
0.010256
0.010256
0.020468
0.051105
0.051105
-0.030593
-0.061229
-0.091865
-0.081653
-0.091865
-0.091865
-0.051017
-0.020380
-0.010168
-0.010168
0.020468
0.000044
0.030680
0.030680
-0.020380
-0.010168
0.000044
0.020468
0.020468
-0.010168
0.030680
0.051105
0.091953
0.183862
-0.204199
-0.745442
-0.398229
-0.224623
-0.030593
0.091953
0.153226
0.112377
0.122589
0.102165
0.081741
0.102165
0.091953
0.102165
0.081741
0.081741
0.081741
0.081741
0.091953
0.091953
0.081741
0.112377
0.102165
0.102165
0.122589
0.081741
0.102165
0.081741
0.071529
0.071529
0.010256
0.020468
0.000044
-0.061229
-0.051017
-0.071441
-0.132714
-0.122502
-0.142926
-0.112290
-0.102077
-0.091865
-0.091865
-0.061229
-0.040805
-0.020380
-0.010168
-0.061229
-0.051017
-0.030593
-0.020380
-0.010168
-0.020380
0.010256
0.010256
0.061317
0.020468
0.000044
-0.051017
-0.010168
0.010256
0.000044
0.000044
-0.010168
0.020468
-0.010168
-0.030593
0.010256
0.020468
0.000044
0.020468
0.030680
0.030680
0.030680
0.000044
0.000044
-0.010168
0.030680
0.010256
-0.010168
-0.020380
-0.020380
0.000044
0.000044
-0.010168
0.030680
0.020468
0.030680
0.000044
0.010256
0.010256
0.010256
0.010256
0.040892
0.061317
-0.010168
0.020468
0.061317
0.040892
0.061317
0.061317
-0.020380
-0.061229
-0.061229
-0.081653
-0.051017
-0.030593
0.000044
0.020468
0.020468
0.000044
0.010256
0.051105
0.061317
0.030680
0.010256
0.040892
0.010256
0.010256
0.020468
0.040892
0.030680
0.091953
0.132802
0.091953
-0.694381
-0.551411
-0.265472
-0.132714
0.020468
0.112377
0.122589
0.122589
0.112377
0.102165
0.081741
0.091953
0.071529
0.112377
0.081741
0.091953
0.112377
0.091953
0.112377
0.102165
0.122589
0.112377
0.051105
0.102165
0.081741
0.071529
0.091953
0.030680
0.040892
0.030680
-0.061229
-0.051017
-0.091865
-0.091865
-0.112290
-0.173562
-0.142926
-0.122502
-0.142926
-0.132714
-0.081653
-0.071441
-0.020380
-0.020380
0.000044
0.010256
0.000044
0.040892
0.020468
0.040892
-0.020380
0.000044
0.000044
0.020468
0.030680
0.030680
0.071529
0.051105
0.061317
0.102165
0.081741
0.040892
0.071529
0.051105
0.040892
0.061317
0.040892
0.020468
0.081741
0.040892
0.000044
0.071529
0.030680
0.030680
0.061317
0.030680
0.040892
0.102165
0.030680
0.051105
0.040892
0.020468
0.040892
0.061317
0.000044
0.051105
0.020468
0.020468
-0.010168
-0.010168
0.020468
0.030680
0.040892
0.010256
0.081741
0.091953
0.102165
-0.020380
-0.020380
-0.091865
-0.051017
-0.122502
-0.030593
0.030680
-0.030593
-0.030593
0.071529
-0.010168
-0.040805
0.030680
0.091953
0.000044
0.010256
-0.051017
0.010256
-0.020380
-0.010168
0.010256
0.051105
0.173650
0.071529
-0.582048
-0.571835
-0.142926
-0.040805
-0.010168
0.071529
0.132802
0.112377
0.081741
0.143014
0.091953
0.051105
0.020468
0.030680
0.071529
0.112377
0.122589
0.081741
0.091953
0.081741
0.051105
0.081741
0.081741
0.061317
0.030680
0.040892
0.071529
0.051105
0.000044
0.010256
-0.061229
-0.061229
-0.051017
-0.081653
-0.163350
-0.163350
-0.163350
-0.183774
-0.173562
-0.051017
-0.102077
-0.081653
-0.091865
-0.071441
-0.030593
-0.020380
0.000044
0.020468
0.000044
0.020468
0.010256
-0.030593
-0.030593
0.040892
0.030680
0.000044
0.040892
0.000044
0.030680
0.061317
0.010256
0.040892
0.071529
0.010256
0.051105
0.030680
0.040892
0.020468
0.030680
0.061317
0.020468
0.061317
0.000044
0.030680
0.061317
0.020468
0.010256
-0.051017
0.020468
-0.020380
0.000044
-0.020380
-0.030593
0.030680
0.051105
0.030680
0.030680
0.020468
0.030680
-0.020380
0.030680
-0.010168
0.051105
0.051105
0.071529
0.030680
-0.040805
-0.142926
-0.081653
-0.091865
-0.071441
0.061317
0.061317
-0.051017
-0.010168
-0.020380
-0.020380
0.040892
0.051105
-0.040805
0.040892
0.091953
0.030680
0.081741
0.020468
0.000044
0.020468
0.102165
0.071529
-0.061229
-0.745442
-0.490138
-0.081653
0.071529
0.030680
0.132802
0.091953
0.061317
0.061317
0.051105
0.030680
0.081741
0.000044
0.051105
-0.030593
0.010256
0.112377
0.081741
0.061317
0.071529
-0.010168
0.010256
0.091953
0.091953
0.020468
-0.020380
0.040892
0.081741
0.000044
-0.091865
-0.091865
-0.010168
-0.142926
-0.081653
-0.132714
-0.142926
-0.153138
-0.173562
-0.153138
-0.091865
-0.102077
-0.030593
-0.091865
-0.020380
-0.040805
-0.030593
0.000044
-0.040805
0.020468
0.010256
-0.020380
0.010256
-0.040805
0.020468
-0.010168
-0.010168
-0.010168
-0.020380
0.000044
0.071529
-0.010168
-0.030593
0.051105
-0.030593
-0.020380
-0.040805
-0.051017
-0.040805
-0.030593
-0.010168
0.010256
0.010256
0.000044
-0.010168
-0.020380
-0.010168
-0.040805
-0.020380
0.010256
0.010256
-0.040805
0.000044
-0.010168
0.010256
-0.020380
-0.020380
0.010256
0.030680
-0.020380
-0.040805
0.000044
-0.020380
0.000044
0.010256
0.051105
0.020468
0.020468
-0.081653
-0.081653
-0.081653
-0.132714
-0.040805
-0.020380
-0.081653
-0.061229
-0.040805
-0.040805
-0.020380
0.000044
0.010256
-0.061229
-0.010168
0.000044
0.010256
-0.020380
-0.010168
-0.020380
0.051105
0.112377
0.132802
-0.183774
-0.837351
-0.449290
-0.153138
-0.010168
0.040892
0.143014
0.091953
0.071529
0.153226
0.010256
0.040892
0.040892
0.091953
0.112377
0.051105
0.071529
0.081741
0.081741
0.102165
0.081741
0.112377
0.040892
0.071529
0.143014
0.081741
0.163438
0.091953
0.071529
0.040892
-0.020380
0.000044
-0.030593
-0.040805
-0.061229
-0.091865
-0.122502
-0.142926
-0.122502
-0.102077
-0.071441
-0.030593
-0.061229
-0.030593
0.010256
-0.010168
-0.030593
-0.040805
-0.020380
-0.010168
0.020468
-0.030593
0.010256
-0.010168
-0.020380
0.010256
-0.010168
0.000044
0.040892
0.010256
0.000044
0.030680
0.020468
0.030680
-0.010168
0.000044
0.020468
0.010256
0.010256
-0.010168
0.010256
0.010256
-0.010168
0.010256
0.020468
-0.030593
-0.010168
-0.051017
-0.061229
-0.020380
-0.030593
-0.040805
-0.010168
-0.020380
-0.040805
-0.030593
-0.020380
-0.020380
-0.051017
-0.020380
-0.020380
-0.030593
-0.010168
0.020468
0.061317
0.010256
-0.071441
-0.091865
-0.051017
-0.081653
-0.081653
-0.051017
-0.040805
0.000044
0.030680
-0.030593
-0.040805
-0.020380
0.010256
0.010256
0.010256
0.010256
-0.010168
0.020468
0.010256
0.010256
0.030680
0.091953
0.183862
0.071529
-0.663745
-0.561623
-0.285896
-0.071441
0.071529
0.204286
0.112377
0.112377
0.163438
0.081741
0.112377
0.112377
0.102165
0.102165
0.112377
0.132802
0.102165
0.071529
0.132802
0.102165
0.132802
0.112377
0.102165
0.112377
0.102165
0.112377
0.132802
0.091953
0.071529
0.051105
0.051105
0.030680
-0.040805
-0.061229
-0.071441
-0.091865
-0.112290
-0.112290
-0.112290
-0.081653
-0.071441
-0.071441
-0.071441
-0.040805
-0.010168
-0.020380
-0.030593
-0.020380
-0.030593
-0.020380
-0.010168
-0.010168
0.000044
-0.010168
0.000044
0.020468
0.010256
0.020468
0.000044
-0.020380
0.000044
0.000044
0.000044
0.010256
-0.010168
0.000044
0.000044
-0.010168
0.000044
0.020468
-0.010168
-0.010168
0.000044
0.000044
-0.010168
-0.010168
0.000044
0.000044
0.000044
0.020468
0.010256
0.020468
0.010256
0.000044
0.030680
0.030680
0.020468
0.020468
0.030680
0.010256
0.030680
0.020468
0.040892
0.081741
0.061317
-0.010168
-0.061229
-0.051017
-0.061229
-0.081653
-0.040805
0.000044
-0.020380
-0.010168
-0.010168
0.010256
0.010256
0.010256
0.000044
0.010256
0.020468
0.010256
0.010256
0.030680
0.020468
0.020468
0.122589
0.173650
0.214499
-0.428866
-0.663745
-0.285896
-0.091865
0.020468
0.132802
0.153226
0.122589
0.112377
0.102165
0.102165
0.102165
0.102165
0.112377
0.102165
0.091953
0.102165
0.102165
0.112377
0.091953
0.081741
0.122589
0.091953
0.122589
0.122589
0.081741
0.102165
0.091953
0.051105
0.051105
0.020468
0.010256
0.000044
-0.051017
-0.051017
-0.132714
-0.132714
-0.112290
-0.112290
-0.102077
-0.091865
-0.061229
-0.030593
-0.030593
0.000044
-0.030593
0.000044
-0.010168
-0.020380
-0.010168
0.000044
0.000044
-0.010168
0.010256
-0.010168
0.020468
-0.010168
0.061317
0.040892
0.010256
0.030680
0.020468
0.020468
0.040892
0.030680
0.020468
0.030680
0.020468
0.020468
0.010256
0.000044
-0.030593
0.020468
0.010256
0.000044
0.040892
0.020468
0.010256
0.020468
0.040892
0.030680
0.040892
0.040892
0.010256
0.030680
-0.030593
0.030680
0.010256
0.030680
0.010256
0.051105
0.061317
0.051105
0.091953
-0.010168
-0.061229
-0.091865
-0.061229
-0.102077
-0.051017
0.000044
0.020468
0.020468
0.030680
0.000044
0.040892
0.030680
0.020468
0.061317
0.071529
0.051105
0.040892
0.040892
0.061317
0.030680
0.091953
0.143014
0.183862
-0.163350
-0.725017
-0.306320
-0.071441
0.040892
0.102165
0.183862
0.132802
0.112377
0.122589
0.143014
0.132802
0.071529
0.071529
0.143014
0.091953
0.071529
0.081741
0.132802
0.102165
0.071529
0.091953
0.112377
0.102165
0.051105
0.081741
0.102165
0.102165
0.030680
0.040892
0.030680
0.000044
-0.061229
-0.122502
-0.051017
-0.122502
-0.173562
-0.173562
-0.091865
-0.091865
-0.122502
-0.091865
-0.040805
-0.030593
-0.030593
-0.030593
-0.020380
0.020468
-0.020380
0.010256
0.000044
-0.020380
0.020468
0.020468
0.030680
0.010256
0.030680
0.051105
0.040892
-0.010168
0.030680
0.061317
0.010256
0.000044
-0.010168
0.051105
0.020468
0.020468
0.030680
0.040892
0.020468
-0.010168
0.010256
0.000044
0.010256
0.020468
0.020468
-0.020380
0.030680
0.040892
-0.010168
-0.020380
0.051105
0.020468
-0.020380
-0.040805
0.020468
0.020468
0.000044
0.000044
0.010256
0.061317
0.030680
-0.102077
-0.132714
-0.122502
-0.081653
-0.102077
-0.051017
-0.061229
-0.010168
0.040892
-0.030593
-0.040805
0.030680
0.010256
-0.010168
-0.040805
0.030680
0.020468
-0.020380
-0.010168
-0.030593
-0.020380
0.061317
0.132802
0.091953
-0.510563
-0.643320
-0.255259
-0.061229
0.040892
0.061317
0.102165
0.081741
0.081741
0.051105
0.051105
0.061317
0.020468
0.061317
0.102165
0.020468
0.102165
0.051105
0.081741
0.030680
0.061317
0.051105
0.051105
0.081741
0.071529
0.030680
0.040892
0.020468
0.020468
0.000044
-0.061229
-0.061229
-0.102077
-0.122502
-0.163350
-0.153138
-0.183774
-0.153138
-0.204199
-0.132714
-0.112290
-0.071441
-0.051017
-0.051017
-0.040805
0.000044
0.000044
0.000044
-0.010168
0.000044
0.000044
0.020468
-0.010168
0.040892
0.000044
0.040892
0.030680
0.000044
0.010256
0.000044
0.000044
0.020468
0.040892
-0.010168
-0.010168
-0.010168
-0.010168
-0.010168
-0.040805
-0.051017
-0.020380
-0.030593
-0.040805
-0.040805
-0.040805
-0.030593
-0.030593
-0.030593
-0.030593
-0.030593
-0.051017
-0.040805
-0.030593
-0.020380
-0.030593
-0.020380
-0.010168
-0.030593
-0.030593
-0.030593
-0.030593
0.000044
0.030680
0.000044
-0.081653
-0.122502
-0.142926
-0.091865
-0.122502
-0.051017
-0.030593
-0.030593
-0.020380
0.010256
0.010256
0.010256
0.010256
0.010256
0.010256
0.040892
0.051105
0.071529
0.040892
0.040892
0.051105
0.102165
0.153226
0.194074
-0.520775
-0.592260
-0.193987
-0.051017
0.061317
0.122589
0.143014
0.122589
0.102165
0.081741
0.122589
0.081741
0.071529
0.112377
0.102165
0.091953
0.112377
0.071529
0.122589
0.081741
0.102165
0.122589
0.091953
0.102165
0.112377
0.102165
0.040892
0.051105
0.051105
0.040892
-0.010168
0.000044
-0.071441
-0.020380
-0.040805
-0.102077
-0.102077
-0.091865
-0.091865
-0.061229
-0.081653
-0.040805
-0.051017
-0.030593
-0.010168
-0.020380
0.000044
0.040892
0.000044
0.000044
0.000044
0.000044
0.030680
0.030680
0.030680
0.030680
0.030680
0.030680
0.010256
0.051105
0.000044
0.020468
0.030680
0.000044
0.010256
0.071529
0.091953
0.030680
0.030680
-0.030593
-0.020380
0.000044
-0.010168
0.000044
-0.020380
-0.010168
0.030680
0.010256
0.020468
-0.010168
0.020468
-0.040805
0.030680
0.030680
-0.020380
0.020468
-0.010168
0.010256
0.000044
-0.020380
0.051105
-0.061229
-0.091865
-0.122502
-0.122502
-0.112290
-0.081653
-0.010168
-0.020380
-0.020380
-0.040805
0.000044
-0.051017
0.010256
-0.020380
0.020468
-0.051017
0.000044
-0.040805
0.020468
0.040892
0.010256
0.051105
0.091953
0.122589
-0.112290
-0.765866
-0.428866
-0.153138
0.000044
0.040892
0.163438
0.122589
0.081741
0.051105
0.020468
0.132802
0.081741
0.040892
0.081741
0.051105
0.112377
0.040892
0.071529
0.051105
0.061317
0.061317
0.051105
0.030680
0.081741
0.010256
0.071529
0.051105
0.000044
0.000044
0.000044
-0.051017
-0.081653
-0.102077
-0.102077
-0.132714
-0.163350
-0.153138
-0.122502
-0.112290
-0.112290
-0.081653
-0.061229
-0.051017
-0.030593
0.010256
-0.020380
0.020468
-0.010168
-0.020380
0.020468
0.030680
0.010256
0.040892
0.030680
0.020468
0.020468
0.020468
0.010256
0.030680
0.030680
0.051105
0.061317
0.061317
0.040892
0.051105
0.040892
0.051105
0.040892
0.051105
0.061317
0.030680
0.040892
0.102165
0.081741
0.000044
0.071529
0.122589
0.030680
0.020468
0.051105
0.020468
-0.030593
0.010256
0.051105
0.010256
0.000044
0.081741
0.091953
0.051105
0.091953
-0.040805
-0.061229
-0.030593
0.000044
-0.040805
-0.010168
0.000044
-0.010168
0.010256
-0.010168
0.061317
0.061317
0.051105
0.061317
0.020468
0.102165
0.030680
0.010256
-0.020380
0.071529
0.112377
0.122589
0.122589
0.132802
-0.479926
-0.714805
-0.255259
-0.122502
0.061317
0.102165
0.163438
0.071529
0.081741
0.051105
0.153226
0.112377
0.112377
0.081741
0.061317
0.112377
0.122589
0.051105
0.102165
0.122589
0.112377
0.091953
0.112377
0.122589
0.091953
-0.020380
0.000044
-0.030593
0.010256
0.040892
-0.051017
-0.061229
-0.102077
-0.132714
-0.071441
-0.061229
-0.142926
-0.224623
-0.163350
-0.081653
-0.091865
-0.081653
-0.061229
-0.010168
-0.051017
0.051105
0.051105
0.051105
-0.061229
-0.051017
0.020468
-0.010168
0.081741
-0.020380
-0.051017
-0.010168
0.010256
0.061317
0.051105
0.071529
0.091953
0.153226
0.020468
0.040892
0.081741
-0.010168
-0.020380
0.040892
0.061317
0.000044
0.040892
0.112377
0.112377
0.020468
0.000044
0.051105
0.081741
0.051105
-0.010168
-0.020380
-0.081653
-0.010168
0.030680
0.102165
0.173650
0.183862
-0.132714
0.010256
-0.112290
-0.132714
-0.081653
-0.112290
-0.061229
-0.010168
-0.020380
0.020468
-0.071441
-0.081653
0.000044
0.010256
-0.102077
-0.071441
-0.010168
-0.051017
-0.061229
-0.081653
-0.030593
-0.071441
-0.051017
-0.030593
0.091953
0.112377
-0.428866
-0.735230
-0.326744
-0.204199
-0.051017
0.102165
0.010256
0.030680
0.040892
0.051105
0.040892
0.051105
0.030680
0.040892
0.040892
0.020468
-0.020380
0.000044
-0.020380
0.010256
0.061317
0.040892
0.000044
0.040892
0.051105
0.010256
0.061317
0.010256
0.030680
0.010256
-0.040805
-0.051017
-0.122502
-0.112290
-0.102077
-0.142926
-0.142926
-0.163350
-0.173562
-0.122502
-0.153138
-0.142926
-0.102077
-0.071441
-0.091865
-0.061229
-0.091865
-0.091865
-0.112290
-0.071441
-0.030593
-0.040805
-0.040805
-0.061229
-0.051017
-0.040805
-0.071441
-0.030593
-0.040805
-0.030593
-0.010168
0.000044
-0.010168
0.000044
-0.040805
-0.040805
-0.030593
-0.020380
0.000044
-0.010168
-0.020380
-0.020380
-0.010168
0.000044
-0.040805
-0.020380
-0.030593
-0.030593
-0.020380
-0.051017
-0.051017
-0.051017
-0.030593
-0.040805
0.020468
0.051105
0.000044
-0.071441
-0.091865
-0.122502
-0.122502
-0.040805
-0.010168
-0.010168
-0.020380
0.010256
-0.020380
-0.030593
0.000044
0.000044
-0.010168
0.010256
0.010256
0.020468
0.000044
0.000044
0.000044
0.040892
0.112377
0.163438
-0.193987
-0.776078
-0.449290
-0.234835
-0.020380
0.081741
0.173650
0.081741
0.112377
0.091953
0.091953
0.112377
0.102165
0.122589
0.153226
0.081741
0.091953
0.091953
0.091953
0.091953
0.112377
0.122589
0.132802
0.081741
0.122589
0.091953
0.112377
0.102165
0.143014
0.163438
0.132802
0.112377
0.081741
0.020468
0.020468
-0.040805
-0.040805
-0.020380
0.020468
0.010256
0.051105
0.020468
0.040892
0.051105
0.051105
0.051105
0.051105
0.051105
0.051105
0.040892
0.071529
0.112377
0.122589
0.091953
0.061317
0.091953
0.061317
0.061317
0.071529
0.040892
0.051105
0.091953
0.040892
0.051105
0.071529
0.081741
0.081741
0.071529
0.091953
0.051105
0.051105
0.030680
0.030680
0.010256
0.020468
0.000044
0.010256
0.030680
0.000044
0.020468
-0.010168
-0.030593
-0.040805
0.030680
0.010256
0.061317
0.051105
-0.030593
-0.081653
-0.102077
-0.081653
-0.081653
0.020468
-0.040805
-0.030593
-0.030593
-0.010168
0.000044
-0.010168
-0.020380
-0.020380
-0.010168
-0.010168
-0.010168
-0.010168
0.000044
-0.020380
-0.010168
0.091953
0.143014
0.173650
-0.490138
-0.643320
-0.316532
-0.132714
0.051105
0.122589
0.122589
0.102165
0.143014
0.112377
0.112377
0.102165
0.040892
0.081741
0.040892
0.091953
0.091953
0.081741
0.081741
0.091953
0.091953
0.122589
0.071529
0.091953
0.040892
0.051105
0.081741
0.051105
0.071529
0.051105
0.020468
0.010256
-0.030593
-0.040805
-0.061229
-0.112290
-0.091865
-0.071441
-0.071441
-0.071441
-0.081653
-0.030593
-0.030593
-0.010168
0.000044
0.010256
0.000044
-0.020380
-0.010168
0.000044
0.000044
0.010256
0.020468
0.030680
0.030680
0.030680
0.030680
0.030680
0.040892
0.030680
0.020468
0.020468
0.040892
0.051105
0.030680
0.020468
0.020468
0.000044
0.020468
0.000044
0.000044
0.010256
0.020468
0.010256
0.010256
0.000044
0.000044
0.000044
0.000044
0.000044
-0.010168
-0.010168
0.000044
0.000044
0.010256
-0.010168
-0.020380
0.010256
0.030680
0.051105
0.071529
0.010256
-0.071441
-0.071441
-0.112290
-0.102077
-0.061229
-0.020380
0.030680
0.010256
0.020468
-0.010168
-0.010168
0.000044
0.020468
0.010256
0.000044
0.010256
0.000044
0.010256
0.010256
0.000044
0.061317
0.122589
0.183862
-0.490138
-0.633108
-0.388017
-0.183774
0.010256
0.122589
0.132802
0.061317
0.102165
0.081741
0.091953
0.091953
0.091953
0.102165
0.081741
0.091953
0.102165
0.091953
0.122589
0.112377
0.091953
0.112377
0.091953
0.122589
0.122589
0.112377
0.122589
0.102165
0.091953
0.091953
0.061317
0.030680
-0.010168
0.000044
-0.030593
-0.051017
-0.061229
-0.081653
-0.071441
-0.061229
-0.051017
-0.040805
-0.010168
-0.030593
0.000044
-0.061229
0.000044
-0.020380
-0.020380
-0.010168
-0.010168
-0.010168
-0.010168
0.010256
0.000044
0.000044
0.010256
0.000044
0.010256
0.000044
0.000044
-0.010168
0.000044
0.040892
0.000044
-0.010168
-0.020380
-0.020380
-0.020380
-0.030593
-0.020380
-0.030593
-0.020380
-0.010168
-0.020380
-0.030593
-0.010168
0.000044
0.000044
-0.020380
0.000044
-0.020380
-0.010168
-0.010168
-0.030593
-0.020380
-0.030593
-0.030593
-0.010168
0.000044
0.010256
0.051105
0.020468
-0.061229
-0.102077
-0.081653
-0.091865
-0.081653
-0.030593
-0.051017
-0.030593
-0.020380
-0.020380
0.000044
0.000044
-0.010168
0.000044
0.010256
0.000044
-0.010168
0.000044
-0.010168
-0.020380
0.020468
0.091953
0.183862
-0.020380
-0.735230
-0.469714
-0.275684
-0.040805
0.051105
0.143014
0.091953
0.091953
0.081741
0.051105
0.102165
0.081741
0.061317
0.071529
0.071529
0.091953
0.091953
0.102165
0.112377
0.081741
0.102165
0.112377
0.081741
0.102165
0.091953
0.091953
0.102165
0.071529
0.091953
0.061317
0.040892
0.040892
-0.010168
0.020468
-0.040805
-0.061229
-0.071441
-0.081653
-0.071441
-0.061229
-0.061229
-0.020380
-0.020380
0.000044
-0.010168
-0.010168
0.000044
0.020468
0.010256
0.000044
-0.010168
0.010256
0.000044
0.000044
0.020468
0.000044
0.040892
0.000044
-0.010168
0.000044
0.010256
0.020468
0.000044
0.010256
0.000044
-0.010168
0.000044
0.010256
-0.010168
0.000044
-0.020380
-0.010168
-0.010168
-0.010168
-0.010168
-0.010168
-0.020380
-0.020380
-0.020380
-0.010168
-0.020380
-0.030593
-0.030593
-0.010168
-0.010168
-0.010168
-0.010168
0.000044
0.000044
-0.020380
0.010256
0.010256
0.051105
0.051105
-0.010168
-0.081653
-0.081653
-0.071441
-0.081653
-0.020380
-0.030593
-0.010168
-0.020380
-0.020380
-0.020380
0.000044
-0.010168
-0.010168
-0.020380
-0.010168
-0.030593
-0.030593
-0.020380
-0.010168
0.010256
0.071529
0.143014
0.040892
-0.714805
-0.428866
-0.255259
-0.071441
0.030680
0.122589
0.081741
0.081741
0.091953
0.051105
0.081741
0.081741
0.081741
0.102165
0.051105
0.071529
0.081741
0.091953
0.112377
0.071529
0.081741
0.122589
0.102165
0.122589
0.091953
0.091953
0.081741
0.051105
0.071529
0.020468
0.030680
0.000044
-0.040805
-0.030593
-0.061229
-0.081653
-0.071441
-0.081653
-0.061229
-0.061229
-0.071441
-0.020380
-0.040805
-0.030593
-0.020380
-0.040805
0.000044
-0.010168
-0.020380
0.000044
-0.010168
0.000044
0.010256
0.010256
0.010256
0.000044
0.000044
0.000044
0.010256
0.020468
0.040892
0.000044
0.020468
0.010256
0.020468
0.010256
0.000044
0.000044
-0.030593
-0.010168
-0.020380
-0.010168
-0.020380
0.010256
0.000044
-0.010168
-0.010168
-0.010168
-0.020380
0.000044
-0.010168
0.000044
-0.010168
0.000044
0.000044
0.000044
0.000044
0.000044
-0.020380
-0.010168
0.010256
0.030680
0.051105
0.010256
-0.051017
-0.061229
-0.061229
-0.071441
-0.030593
-0.010168
-0.030593
-0.020380
-0.020380
-0.010168
-0.020380
-0.020380
-0.020380
-0.010168
-0.030593
-0.030593
-0.020380
-0.010168
-0.010168
0.000044
0.061317
0.143014
0.143014
-0.582048
-0.500351
-0.275684
-0.112290
0.000044
0.102165
0.122589
0.081741
0.102165
0.071529
0.081741
0.091953
0.081741
0.102165
0.081741
0.081741
0.102165
0.071529
0.112377
0.081741
0.081741
0.112377
0.091953
0.102165
0.091953
0.081741
0.081741
0.061317
0.071529
0.051105
0.020468
0.010256
-0.040805
-0.030593
-0.061229
-0.091865
-0.091865
-0.102077
-0.071441
-0.051017
-0.061229
-0.030593
-0.010168
0.010256
0.000044
0.000044
0.020468
0.010256
0.010256
0.020468
0.000044
0.020468
0.030680
0.030680
0.020468
0.010256
0.010256
0.030680
0.010256
0.030680
0.020468
0.010256
0.020468
0.010256
0.000044
0.000044
0.020468
0.010256
-0.010168
0.010256
0.000044
0.000044
0.010256
0.000044
-0.010168
-0.010168
-0.010168
-0.010168
-0.020380
-0.010168
-0.010168
-0.010168
-0.010168
0.000044
0.000044
0.010256
0.010256
0.000044
0.010256
0.030680
0.040892
0.071529
-0.010168
-0.071441
-0.071441
-0.091865
-0.102077
-0.051017
-0.020380
-0.010168
0.000044
0.010256
0.000044
0.010256
0.000044
-0.010168
0.010256
0.010256
0.020468
0.010256
0.000044
0.010256
0.020468
0.091953
0.163438
0.081741
-0.684169
-0.439078
-0.245047
-0.081653
0.040892
0.132802
0.081741
0.091953
0.102165
0.051105
0.071529
0.071529
0.061317
0.081741
0.071529
0.071529
0.061317
0.051105
0.091953
0.061317
0.051105
0.071529
0.071529
0.091953
0.071529
0.071529
0.081741
0.040892
0.061317
0.030680
0.020468
0.000044
-0.051017
-0.030593
-0.071441
-0.081653
-0.061229
-0.102077
-0.081653
-0.061229
-0.051017
-0.020380
-0.010168
0.000044
0.000044
0.000044
0.010256
0.020468
0.020468
0.000044
0.010256
0.010256
0.010256
0.020468
0.010256
0.020468
0.010256
0.030680
0.020468
0.020468
0.020468
0.020468
-0.010168
0.000044
0.000044
-0.010168
-0.010168
0.000044
-0.020380
-0.020380
-0.020380
-0.010168
-0.010168
-0.010168
-0.010168
0.000044
0.000044
0.010256
0.000044
0.000044
-0.020380
-0.020380
-0.010168
-0.020380
-0.020380
-0.040805
-0.010168
-0.020380
-0.020380
0.010256
0.010256
0.040892
0.040892
-0.010168
-0.061229
-0.102077
-0.091865
-0.112290
-0.061229
-0.020380
-0.010168
-0.020380
-0.010168
-0.010168
-0.010168
-0.010168
0.000044
0.010256
0.010256
0.020468
0.000044
0.010256
-0.010168
0.030680
0.112377
0.143014
0.091953
-0.684169
-0.459502
-0.193987
-0.091865
0.020468
0.122589
0.081741
0.061317
0.112377
0.051105
0.081741
0.071529
0.061317
0.102165
0.061317
0.061317
0.071529
0.051105
0.071529
0.061317
0.061317
0.071529
0.061317
0.091953
0.071529
0.061317
0.091953
0.071529
0.061317
0.040892
0.010256
0.010256
-0.040805
-0.040805
-0.051017
-0.091865
-0.071441
-0.071441
-0.081653
-0.061229
-0.061229
-0.030593
-0.030593
0.000044
0.020468
0.010256
0.030680
0.020468
0.000044
0.030680
0.020468
0.040892
0.030680
0.051105
0.040892
0.030680
0.020468
0.030680
0.040892
0.030680
0.030680
0.010256
0.010256
0.000044
0.000044
0.000044
-0.010168
0.000044
0.000044
-0.010168
-0.010168
-0.010168
-0.020380
-0.020380
0.000044
-0.010168
0.010256
0.000044
-0.010168
-0.020380
-0.020380
-0.010168
-0.020380
-0.010168
-0.020380
-0.020380
-0.010168
0.000044
0.010256
0.051105
0.040892
-0.061229
-0.091865
-0.081653
-0.102077
-0.071441
-0.040805
-0.040805
-0.030593
-0.030593
-0.030593
-0.030593
-0.010168
-0.010168
-0.010168
0.000044
0.010256
0.000044
-0.010168
-0.010168
0.010256
0.051105
0.122589
0.153226
-0.285896
-0.643320
-0.306320
-0.214411
0.000044
0.071529
0.112377
0.091953
0.102165
0.091953
0.061317
0.081741
0.071529
0.081741
0.081741
0.071529
0.091953
0.071529
0.091953
0.091953
0.081741
0.091953
0.071529
0.081741
0.071529
0.061317
0.091953
0.071529
0.061317
0.040892
0.010256
0.010256
0.000044
-0.051017
-0.040805
-0.091865
-0.071441
-0.071441
-0.071441
-0.051017
-0.040805
-0.030593
-0.020380
-0.010168
0.010256
0.000044
-0.010168
0.000044
0.010256
0.010256
0.000044
0.020468
0.020468
0.010256
0.030680
0.010256
0.010256
0.030680
0.000044
0.000044
0.020468
0.000044
0.000044
0.000044
0.000044
0.000044
0.000044
0.010256
0.000044
-0.020380
0.010256
-0.010168
0.000044
0.000044
0.000044
0.000044
0.000044
0.020468
0.010256
0.010256
0.000044
-0.030593
0.000044
-0.020380
-0.030593
-0.020380
-0.010168
0.010256
0.010256
0.020468
0.040892
-0.030593
-0.091865
-0.102077
-0.081653
-0.122502
-0.061229
-0.030593
-0.020380
-0.020380
-0.020380
-0.020380
0.000044
0.000044
0.000044
0.010256
0.010256
0.030680
0.010256
0.010256
0.000044
0.030680
0.112377
0.163438
-0.040805
-0.694381
-0.357381
-0.234835
-0.040805
0.061317
0.143014
0.071529
0.091953
0.112377
0.071529
0.112377
0.091953
0.081741
0.091953
0.091953
0.112377
0.091953
0.081741
0.091953
0.081741
0.102165
0.081741
0.071529
0.081741
0.051105
0.051105
0.051105
0.040892
0.030680
0.020468
-0.010168
-0.010168
-0.040805
-0.030593
-0.061229
-0.091865
-0.061229
-0.081653
-0.061229
-0.040805
-0.051017
-0.010168
-0.020380
0.000044
0.000044
0.010256
0.020468
0.020468
0.020468
0.020468
0.020468
0.040892
0.020468
0.020468
0.010256
0.010256
0.020468
0.020468
0.010256
0.020468
0.020468
0.020468
0.010256
0.000044
0.000044
0.010256
0.000044
-0.010168
0.010256
-0.010168
-0.020380
0.000044
-0.010168
0.000044
-0.010168
-0.030593
-0.030593
-0.020380
-0.030593
-0.010168
0.000044
-0.020380
-0.010168
-0.020380
0.000044
0.000044
-0.010168
-0.010168
-0.020380
0.000044
-0.010168
-0.020380
-0.020380
-0.010168
-0.020380
0.020468
0.020468
0.040892
0.061317
-0.010168
-0.091865
-0.091865
-0.091865
-0.122502
-0.061229
-0.040805
-0.020380
-0.020380
-0.020380
-0.010168
-0.010168
-0.020380
-0.010168
0.020468
0.020468
0.010256
0.010256
0.010256
0.020468
0.061317
0.143014
0.183862
-0.163350
-0.653532
-0.275684
-0.163350
-0.010168
0.071529
0.143014
0.102165
0.112377
0.102165
0.071529
0.102165
0.081741
0.091953
0.112377
0.081741
0.102165
0.091953
0.102165
0.081741
0.081741
0.122589
0.091953
0.091953
0.081741
0.091953
0.091953
0.071529
0.040892
0.061317
0.000044
-0.010168
-0.010168
-0.040805
-0.030593
-0.061229
-0.081653
-0.071441
-0.091865
-0.051017
-0.040805
-0.051017
-0.040805
-0.020380
-0.010168
-0.010168
0.000044
0.020468
0.010256
0.020468
0.010256
0.030680
0.040892
0.030680
0.051105
0.040892
0.030680
0.020468
0.010256
0.020468
0.010256
0.040892
0.020468
0.010256
-0.010168
0.000044
0.000044
0.020468
0.010256
0.000044
0.000044
-0.010168
0.020468
0.010256
-0.010168
-0.010168
0.000044
-0.020380
0.000044
0.020468
0.020468
0.000044
-0.010168
-0.010168
0.000044
-0.010168
-0.020380
-0.040805
-0.010168
0.000044
-0.010168
-0.010168
-0.020380
-0.020380
0.000044
-0.020380
-0.010168
-0.020380
-0.020380
0.010256
0.051105
0.040892
0.061317
-0.030593
-0.091865
-0.112290
-0.091865
-0.122502
-0.071441
-0.030593
0.000044
-0.020380
0.010256
0.010256
0.000044
0.010256
0.040892
0.000044
-0.010168
-0.020380
0.000044
0.020468
0.000044
0.040892
0.132802
0.163438
-0.010168
-0.745442
-0.316532
-0.040805
0.000044
0.081741
0.153226
0.122589
0.102165
0.122589
0.071529
0.102165
0.081741
0.071529
0.112377
0.071529
0.102165
0.081741
0.112377
0.112377
0.061317
0.091953
0.081741
0.040892
0.081741
0.040892
0.061317
0.081741
0.040892
0.020468
0.000044
-0.020380
0.010256
-0.071441
-0.091865
-0.102077
-0.163350
-0.132714
-0.142926
-0.102077
-0.102077
-0.102077
-0.061229
-0.051017
-0.020380
-0.020380
0.000044
-0.010168
0.010256
0.010256
0.020468
-0.010168
0.010256
0.010256
0.000044
0.010256
-0.010168
0.010256
0.020468
0.030680
0.051105
0.020468
0.030680
0.010256
0.000044
-0.020380
0.000044
0.000044
-0.010168
-0.010168
0.000044
-0.020380
-0.020380
-0.020380
-0.020380
-0.010168
0.000044
0.000044
-0.010168
0.000044
-0.010168
0.020468
-0.010168
-0.030593
-0.020380
-0.030593
-0.030593
-0.010168
-0.010168
-0.020380
-0.030593
-0.040805
-0.020380
-0.051017
-0.030593
-0.040805
-0.030593
-0.040805
-0.030593
0.000044
0.000044
0.030680
-0.010168
-0.091865
-0.122502
-0.102077
-0.122502
-0.091865
-0.051017
-0.010168
-0.030593
-0.030593
-0.020380
-0.030593
-0.010168
0.000044
0.000044
0.000044
-0.010168
0.000044
0.000044
-0.030593
0.000044
0.051105
0.102165
0.122589
-0.275684
-0.755654
-0.275684
-0.102077
0.000044
0.061317
0.122589
0.071529
0.091953
0.081741
0.081741
0.102165
0.071529
0.071529
0.071529
0.051105
0.071529
0.051105
0.061317
0.071529
0.071529
0.081741
0.061317
0.061317
0.081741
0.071529
0.081741
0.051105
0.051105
0.040892
0.010256
-0.010168
-0.020380
-0.061229
-0.071441
-0.112290
-0.112290
-0.112290
-0.112290
-0.081653
-0.071441
-0.061229
-0.010168
-0.030593
0.000044
0.000044
-0.010168
0.000044
-0.020380
0.010256
0.000044
0.020468
0.040892
0.030680
0.030680
0.030680
0.040892
0.040892
0.030680
0.020468
0.010256
0.020468
0.020468
0.030680
0.010256
0.010256
0.020468
0.020468
0.030680
0.010256
0.020468
0.020468
0.010256
0.020468
0.010256
-0.010168
-0.010168
-0.030593
-0.010168
-0.010168
-0.010168
-0.020380
-0.010168
0.000044
0.000044
-0.010168
-0.020380
-0.030593
-0.030593
-0.030593
-0.040805
-0.040805
-0.030593
-0.030593
-0.030593
-0.020380
0.000044
-0.010168
-0.020380
0.010256
0.000044
0.000044
0.010256
0.051105
0.061317
0.000044
-0.071441
-0.081653
-0.081653
-0.091865
-0.051017
-0.020380
0.000044
0.000044
0.000044
0.010256
0.010256
0.020468
0.010256
0.030680
0.000044
0.020468
0.020468
0.020468
0.010256
0.020468
0.061317
0.132802
0.194074
-0.132714
-0.765866
-0.418653
-0.224623
0.020468
0.102165
0.163438
0.132802
0.122589
0.143014
0.122589
0.132802
0.102165
0.112377
0.112377
0.091953
0.132802
0.112377
0.112377
0.112377
0.091953
0.112377
0.102165
0.091953
0.122589
0.091953
0.102165
0.081741
0.061317
0.061317
0.040892
0.020468
0.000044
-0.030593
-0.040805
-0.061229
-0.081653
-0.081653
-0.102077
-0.071441
-0.051017
-0.040805
-0.030593
-0.030593
-0.010168
-0.010168
-0.010168
-0.020380
-0.030593
0.000044
-0.010168
-0.010168
0.010256
0.010256
0.010256
0.000044
0.010256
0.030680
0.020468
0.030680
0.020468
0.000044
0.000044
0.020468
0.030680
0.010256
0.010256
0.010256
0.000044
-0.010168
0.000044
0.000044
0.010256
0.000044
0.000044
-0.020380
-0.030593
-0.040805
-0.020380
-0.020380
0.010256
0.000044
-0.010168
-0.010168
-0.010168
0.010256
0.010256
-0.010168
-0.010168
0.000044
-0.020380
-0.010168
-0.010168
0.000044
0.000044
-0.010168
-0.010168
0.000044
0.000044
-0.030593
-0.020380
0.000044
-0.010168
-0.020380
0.000044
0.030680
0.071529
-0.020380
-0.081653
-0.102077
-0.091865
-0.112290
-0.051017
-0.040805
-0.020380
-0.030593
-0.020380
-0.020380
0.000044
0.000044
0.000044
0.010256
0.010256
-0.010168
-0.010168
-0.010168
0.010256
-0.010168
0.030680
0.112377
0.153226
-0.142926
-0.806714
-0.490138
-0.275684
-0.020380
0.061317
0.153226
0.081741
0.102165
0.102165
0.091953
0.102165
0.081741
0.102165
0.102165
0.061317
0.102165
0.102165
0.081741
0.112377
0.091953
0.102165
0.091953
0.091953
0.102165
0.102165
0.081741
0.081741
0.071529
0.081741
0.061317
0.051105
0.030680
-0.020380
-0.010168
-0.061229
-0.071441
-0.071441
-0.122502
-0.091865
-0.071441
-0.061229
-0.040805
-0.030593
-0.020380
0.000044
0.000044
0.020468
0.000044
0.010256
0.010256
0.010256
0.010256
0.020468
0.020468
0.030680
0.030680
0.020468
0.030680
0.030680
0.010256
0.010256
0.040892
0.030680
0.010256
0.010256
0.010256
0.000044
0.010256
0.010256
0.020468
0.010256
0.000044
0.000044
0.010256
0.000044
0.000044
-0.010168
0.000044
-0.010168
0.000044
0.000044
0.000044
0.000044
0.000044
0.000044
0.000044
0.010256
0.010256
0.000044
0.020468
0.010256
-0.010168
-0.010168
-0.010168
0.000044
0.010256
0.000044
0.000044
0.020468
0.000044
0.010256
0.000044
-0.010168
0.010256
0.020468
0.000044
0.020468
0.020468
0.051105
0.051105
-0.040805
-0.102077
-0.091865
-0.071441
-0.081653
-0.040805
-0.030593
-0.010168
-0.010168
0.000044
-0.010168
0.000044
0.020468
0.020468
0.010256
0.010256
0.020468
0.010256
0.020468
0.000044
0.030680
0.061317
0.122589
0.173650
-0.285896
-0.725017
-0.408441
-0.224623
0.010256
0.112377
0.153226
0.102165
0.122589
0.112377
0.112377
0.112377
0.081741
0.091953
0.091953
0.091953
0.122589
0.081741
0.102165
0.102165
0.091953
0.112377
0.112377
0.102165
0.102165
0.081741
0.091953
0.081741
0.071529
0.071529
0.030680
0.000044
-0.020380
-0.051017
-0.040805
-0.091865
-0.102077
-0.091865
-0.091865
-0.081653
-0.071441
-0.051017
-0.040805
-0.051017
-0.020380
-0.020380
0.000044
-0.010168
-0.020380
-0.010168
-0.010168
0.010256
0.000044
0.000044
0.010256
0.000044
0.010256
-0.010168
-0.020380
-0.010168
-0.010168
0.000044
-0.010168
0.000044
-0.010168
0.010256
0.030680
0.000044
-0.010168
-0.030593
-0.020380
-0.020380
-0.020380
-0.010168
-0.020380
-0.010168
0.000044
-0.010168
-0.010168
0.010256
-0.010168
-0.010168
0.000044
-0.010168
-0.010168
-0.020380
0.010256
-0.020380
-0.010168
-0.010168
-0.010168
-0.020380
-0.010168
0.000044
0.000044
0.000044
-0.010168
0.000044
-0.010168
-0.010168
-0.030593
-0.010168
-0.020380
-0.010168
-0.010168
-0.020380
-0.020380
0.000044
0.010256
0.030680
0.061317
-0.020380
-0.081653
-0.102077
-0.091865
-0.112290
-0.071441
-0.040805
-0.040805
-0.030593
-0.010168
-0.020380
-0.010168
0.000044
0.000044
0.020468
0.010256
0.020468
0.010256
0.000044
-0.010168
0.000044
0.040892
0.132802
0.153226
-0.071441
-0.755654
-0.439078
-0.255259
-0.020380
0.081741
0.153226
0.102165
0.112377
0.112377
0.081741
0.102165
0.132802
0.091953
0.112377
0.081741
0.112377
0.081741
0.071529
0.102165
0.071529
0.091953
0.081741
0.071529
0.081741
0.071529
0.071529
0.081741
0.061317
0.051105
0.040892
0.040892
0.020468
0.000044
-0.020380
-0.051017
-0.061229
-0.061229
-0.081653
-0.061229
-0.081653
-0.081653
-0.030593
-0.040805
-0.010168
0.000044
-0.010168
0.020468
0.010256
0.010256
0.030680
0.020468
0.030680
0.040892
0.030680
0.051105
0.020468
0.040892
0.040892
0.030680
0.051105
0.030680
0.040892
0.020468
0.030680
0.040892
0.020468
0.030680
0.020468
0.020468
0.000044
0.000044
0.020468
0.000044
0.010256
-0.010168
0.010256
0.000044
0.010256
0.000044
0.010256
0.000044
0.010256
0.010256
0.000044
-0.010168
0.000044
-0.010168
0.000044
-0.010168
0.020468
0.020468
0.000044
0.010256
-0.010168
0.020468
0.000044
0.000044
-0.010168
-0.030593
-0.010168
-0.020380
-0.020380
-0.010168
0.010256
0.030680
0.071529
0.020468
-0.061229
-0.091865
-0.071441
-0.081653
-0.040805
-0.010168
0.010256
-0.010168
-0.010168
-0.010168
-0.010168
0.000044
0.010256
0.010256
0.030680
0.030680
0.020468
0.010256
-0.010168
0.000044
0.030680
0.102165
0.122589
0.081741
-0.673957
-0.479926
-0.112290
-0.071441
0.000044
0.102165
0.102165
0.081741
0.102165
0.071529
0.071529
0.081741
0.071529
0.091953
0.051105
0.081741
0.091953
0.061317
0.071529
0.051105
0.061317
0.061317
0.051105
0.081741
0.040892
0.051105
0.081741
0.040892
0.040892
0.010256
-0.020380
-0.030593
-0.071441
-0.091865
-0.112290
-0.132714
-0.132714
-0.142926
-0.112290
-0.071441
-0.071441
-0.051017
-0.061229
-0.030593
0.000044
-0.020380
-0.010168
0.000044
-0.010168
0.000044
0.010256
0.000044
0.010256
0.010256
0.040892
-0.010168
0.020468
0.030680
0.000044
0.020468
0.040892
0.020468
0.000044
-0.010168
0.010256
0.010256
0.000044
-0.010168
-0.010168
-0.010168
-0.030593
-0.010168
-0.020380
0.020468
0.020468
0.000044
-0.020380
0.000044
-0.010168
0.020468
0.010256
-0.010168
0.010256
0.020468
0.000044
-0.010168
-0.020380
-0.040805
0.000044
-0.020380
-0.020380
-0.010168
-0.020380
-0.020380
-0.020380
-0.051017
-0.010168
-0.030593
-0.051017
-0.020380
-0.020380
-0.010168
0.020468
0.040892
-0.020380
-0.081653
-0.112290
-0.102077
-0.112290
-0.091865
-0.010168
-0.010168
-0.010168
-0.040805
-0.061229
-0.020380
-0.030593
-0.040805
-0.030593
-0.020380
-0.010168
-0.010168
-0.010168
-0.010168
0.000044
0.000044
0.122589
0.122589
-0.030593
-0.776078
-0.439078
-0.102077
-0.061229
0.020468
0.112377
0.112377
0.071529
0.102165
0.051105
0.091953
0.040892
0.040892
0.071529
0.091953
0.081741
0.091953
0.071529
0.091953
0.061317
0.071529
0.091953
0.061317
0.071529
0.071529
0.081741
0.091953
0.020468
0.010256
-0.020380
-0.040805
-0.040805
-0.051017
-0.061229
-0.091865
-0.132714
-0.112290
-0.132714
-0.112290
-0.061229
-0.081653
-0.081653
-0.020380
-0.051017
-0.020380
-0.061229
-0.030593
-0.030593
0.010256
-0.010168
-0.020380
-0.010168
0.000044
0.010256
0.020468
0.000044
0.030680
0.020468
0.030680
0.000044
-0.010168
0.020468
0.030680
0.020468
0.020468
0.020468
0.000044
0.000044
-0.010168
-0.010168
0.010256
0.020468
0.010256
0.010256
0.020468
0.020468
0.020468
0.010256
0.020468
0.010256
0.030680
0.000044
0.020468
0.030680
0.020468
0.010256
0.010256
0.010256
-0.010168
0.000044
0.010256
0.000044
0.030680
0.010256
0.010256
0.020468
0.000044
0.020468
0.030680
0.061317
0.040892
0.000044
0.030680
0.081741
0.040892
-0.040805
-0.081653
-0.061229
-0.081653
-0.040805
0.020468
0.020468
0.000044
-0.010168
-0.010168
0.000044
0.020468
0.020468
0.030680
0.020468
0.010256
0.000044
0.010256
0.061317
0.061317
0.040892
0.112377
0.173650
0.020468
-0.786290
-0.479926
-0.255259
-0.030593
0.071529
0.153226
0.091953
0.102165
0.112377
0.091953
0.132802
0.091953
0.061317
0.071529
0.061317
0.112377
0.091953
0.071529
0.081741
0.030680
0.061317
0.081741
0.071529
0.071529
0.051105
0.081741
0.091953
0.081741
0.071529
0.020468
0.020468
0.000044
-0.051017
-0.071441
-0.081653
-0.091865
-0.102077
-0.122502
-0.071441
-0.081653
-0.051017
-0.020380
-0.020380
-0.020380
0.000044
-0.030593
-0.010168
0.000044
-0.030593
-0.010168
0.010256
0.010256
0.020468
0.000044
0.030680
0.010256
0.030680
0.030680
0.020468
0.010256
0.000044
0.020468
0.000044
0.010256
0.000044
0.010256
0.010256
0.010256
0.010256
0.000044
0.000044
0.020468
-0.010168
0.020468
0.030680
0.010256
-0.010168
-0.030593
-0.030593
-0.040805
0.000044
-0.010168
-0.010168
0.010256
0.020468
0.000044
-0.010168
0.000044
-0.030593
-0.030593
-0.040805
0.000044
0.000044
-0.010168
-0.010168
-0.040805
-0.061229
-0.040805
-0.040805
-0.020380
0.000044
-0.010168
0.020468
0.040892
-0.010168
-0.081653
-0.112290
-0.122502
-0.122502
-0.030593
-0.030593
-0.020380
0.000044
0.000044
-0.010168
0.000044
-0.010168
0.010256
0.000044
-0.030593
-0.020380
0.000044
-0.020380
-0.010168
0.020468
0.051105
0.122589
0.204286
-0.418653
-0.735230
-0.367593
-0.163350
0.020468
0.122589
0.143014
0.091953
0.112377
0.102165
0.102165
0.143014
0.071529
0.102165
0.102165
0.091953
0.102165
0.061317
0.112377
0.071529
0.091953
0.102165
0.081741
0.112377
0.112377
0.112377
0.122589
0.122589
0.091953
0.051105
0.051105
0.020468
0.010256
-0.020380
-0.030593
-0.081653
-0.081653
-0.071441
-0.081653
-0.051017
-0.061229
-0.061229
-0.020380
-0.030593
0.000044
-0.020380
0.000044
0.000044
-0.010168
-0.030593
-0.020380
-0.010168
0.000044
-0.030593
-0.010168
-0.010168
-0.010168
0.020468
0.020468
0.020468
0.000044
-0.020380
0.010256
0.000044
0.000044
0.020468
0.000044
0.010256
0.020468
-0.030593
-0.030593
-0.040805
0.000044
0.051105
-0.020380
0.000044
-0.091865
-0.051017
-0.081653
-0.051017
-0.010168
0.010256
-0.051017
-0.081653
-0.071441
-0.081653
-0.061229
-0.102077
-0.173562
-0.040805
-0.102077
-0.102077
-0.051017
-0.071441
-0.091865
-0.071441
-0.102077
-0.112290
-0.112290
-0.112290
-0.071441
-0.051017
-0.071441
-0.142926
-0.193987
-0.173562
-0.204199
-0.173562
-0.122502
-0.142926
-0.142926
-0.132714
-0.132714
-0.112290
-0.102077
-0.081653
-0.091865
-0.102077
-0.112290
-0.122502
-0.112290
-0.122502
-0.112290
-0.010168
0.061317
0.132802
-0.306320
-0.857775
-0.510563
-0.234835
0.091953
0.265559
0.285984
0.265559
0.296196
0.265559
0.245135
0.285984
0.255347
0.245135
0.316620
0.275771
0.285984
0.275771
0.296196
0.296196
0.306408
0.306408
0.316620
0.326832
0.347256
0.326832
0.306408
0.285984
0.275771
0.265559
0.245135
0.234923
0.234923
0.143014
0.183862
0.091953
0.040892
0.030680
0.030680
0.102165
0.091953
0.071529
0.102165
0.091953
0.091953
0.102165
0.132802
0.173650
0.173650
0.122589
0.091953
0.091953
0.122589
0.091953
0.091953
0.081741
0.071529
0.091953
0.122589
0.091953
0.030680
0.071529
0.040892
0.030680
0.081741
0.051105
-0.010168
0.071529
0.030680
0.071529
0.010256
-0.051017
-0.010168
0.000044
0.000044
0.020468
-0.010168
0.010256
0.000044
-0.010168
0.020468
-0.051017
0.020468
0.030680
-0.010168
-0.081653
-0.020380
0.030680
0.040892
0.000044
-0.030593
-0.010168
-0.010168
0.010256
-0.020380
-0.040805
-0.020380
-0.102077
-0.030593
-0.020380
0.051105
-0.010168
0.030680
0.000044
0.051105
0.040892
-0.040805
-0.122502
-0.051017
-0.071441
-0.173562
0.010256
-0.010168
0.000044
0.010256
0.030680
-0.020380
-0.163350
0.020468
0.051105
0.020468
0.030680
-0.020380
-0.030593
0.020468
0.010256
0.040892
-0.020380
0.183862
-0.010168
-0.776078
-0.541199
-0.265472
-0.061229
-0.030593
0.112377
0.020468
0.091953
0.081741
-0.010168
0.071529
0.071529
0.071529
0.040892
-0.040805
-0.010168
-0.020380
0.173650
0.122589
0.040892
-0.071441
-0.040805
-0.020380
0.000044
0.030680
-0.010168
0.000044
-0.040805
0.020468
0.000044
-0.112290
-0.132714
-0.112290
-0.091865
-0.122502
-0.153138
-0.245047
-0.265472
-0.030593
-0.112290
-0.091865
-0.061229
-0.071441
-0.132714
0.000044
-0.234835
-0.102077
-0.030593
-0.051017
0.010256
0.030680
0.010256
-0.030593
-0.040805
-0.051017
-0.040805
0.010256
-0.010168
0.030680
-0.102077
0.010256
-0.040805
-0.051017
-0.081653
0.071529
-0.081653
0.061317
0.040892
-0.102077
0.000044
-0.061229
-0.081653
-0.193987
0.010256
0.030680
0.040892
-0.030593
-0.193987
0.040892
-0.142926
-0.040805
-0.102077
0.081741
-0.081653
-0.020380
-0.030593
-0.020380
-0.040805
0.010256
-0.112290
-0.081653
0.010256
0.010256
0.020468
-0.051017
0.020468
-0.132714
0.000044
-0.010168
-0.020380
0.010256
0.040892
0.030680
-0.081653
-0.051017
-0.040805
-0.061229
-0.030593
0.061317
0.000044
0.040892
-0.040805
0.000044
-0.040805
0.030680
0.000044
0.000044
-0.010168
-0.010168
0.020468
0.010256
-0.102077
0.010256
0.132802
0.183862
0.163438
-0.520775
-0.510563
-0.439078
-0.173562
-0.020380
0.102165
0.143014
0.143014
0.091953
0.112377
0.071529
0.112377
0.194074
0.112377
0.081741
0.102165
0.081741
0.010256
0.081741
0.061317
0.143014
0.173650
0.122589
0.255347
0.122589
0.163438
0.091953
0.132802
0.153226
0.102165
0.020468
-0.030593
0.000044
0.020468
-0.020380
-0.051017
-0.051017
-0.040805
-0.020380
-0.030593
-0.030593
-0.030593
-0.020380
0.051105
-0.030593
0.000044
-0.061229
0.030680
0.020468
-0.051017
-0.010168
0.071529
0.112377
-0.020380
-0.071441
-0.020380
-0.051017
0.000044
-0.030593
-0.020380
-0.040805
0.061317
-0.020380
-0.010168
0.000044
0.020468
0.020468
0.071529
-0.010168
-0.081653
-0.020380
0.051105
0.010256
0.051105
0.051105
0.010256
0.030680
-0.020380
-0.040805
0.030680
-0.040805
-0.142926
0.061317
0.061317
0.020468
0.030680
0.030680
-0.071441
0.061317
-0.132714
-0.142926
-0.153138
-0.030593
-0.091865
-0.020380
0.040892
-0.091865
-0.020380
0.071529
0.102165
0.020468
0.000044
-0.061229
0.061317
-0.030593
-0.102077
-0.163350
-0.051017
-0.081653
-0.051017
-0.061229
-0.061229
-0.061229
-0.020380
-0.040805
-0.020380
0.030680
0.000044
-0.081653
-0.020380
-0.020380
-0.020380
-0.040805
0.051105
0.081741
0.173650
-0.398229
-0.541199
-0.214411
-0.204199
-0.102077
0.020468
0.061317
0.081741
0.051105
0.071529
0.061317
0.122589
0.122589
-0.040805
0.071529
-0.051017
0.020468
0.010256
0.081741
0.040892
0.051105
0.091953
0.071529
0.091953
0.091953
0.071529
0.091953
0.071529
0.071529
0.081741
0.071529
0.040892
-0.030593
-0.030593
-0.040805
-0.040805
-0.020380
0.030680
-0.081653
-0.020380
0.000044
-0.112290
0.040892
0.030680
0.051105
0.020468
0.000044
-0.020380
-0.030593
0.102165
-0.040805
0.051105
0.010256
0.040892
-0.061229
-0.010168
0.000044
0.040892
0.000044
0.020468
0.020468
0.020468
-0.010168
0.040892
0.091953
0.040892
0.020468
0.020468
0.040892
0.061317
0.020468
0.010256
-0.030593
0.020468
0.000044
0.020468
0.051105
0.040892
-0.051017
0.040892
0.040892
-0.030593
0.061317
-0.040805
0.030680
-0.040805
-0.040805
-0.020380
-0.051017
-0.020380
0.000044
-0.010168
-0.020380
0.000044
0.030680
0.000044
-0.020380
-0.020380
0.040892
-0.010168
0.010256
0.030680
0.051105
-0.030593
-0.081653
-0.071441
-0.122502
-0.061229
-0.061229
0.030680
-0.010168
