0.001249
0.000643
0.002461
0.001855
0.001249
0.003067
0.000946
0.000946
0.000946
0.000037
0.001249
0.002461
0.003067
0.004885
0.001855
-0.009961
-0.034199
-0.048136
-0.035108
-0.018444
-0.007537
-0.001175
0.001249
0.001249
0.001855
0.002764
0.001855
0.001249
0.001552
0.002158
0.001552
0.001249
0.002461
0.001552
0.001855
0.002158
0.001855
0.001855
0.001249
0.001552
0.001855
0.002461
0.002764
0.001552
0.001552
0.002461
0.001855
0.001552
0.001855
0.000946
0.001855
0.001249
0.000340
0.001249
0.001249
0.000643
0.000037
-0.000266
-0.000569
0.000037
0.000946
0.000037
0.000340
0.000037
0.000037
0.000037
-0.000266
0.000037
0.000643
0.000643
0.000037
0.001855
0.002461
0.002158
0.002764
0.001855
0.002461
0.000946
0.002764
0.002461
0.002461
0.003673
0.003067
0.002461
0.002461
0.003673
0.002461
0.004582
0.004279
0.003976
0.002461
0.002461
0.001552
0.001855
0.007006
0.002764
-0.003295
-0.020262
-0.042380
-0.040865
-0.024201
-0.009961
-0.002689
-0.000266
0.001552
0.004885
0.003976
0.000946
0.000340
0.000037
0.000946
0.001552
0.000643
0.002158
0.001855
0.001855
0.003067
0.000643
0.002158
0.000037
0.000643
0.000643
0.000946
0.000946
0.001855
0.001552
0.001552
0.000946
0.000037
0.000037
0.000643
0.000037
0.000037
0.000037
0.000037
-0.000569
-0.000872
0.000037
0.000037
-0.000266
-0.000266
0.000037
0.000037
0.000037
0.000340
0.000037
0.000340
0.001249
0.001249
0.001552
0.000946
0.001552
0.001552
0.001249
0.001249
0.002461
0.001249
0.000340
0.000643
0.000643
0.000946
0.000340
0.000643
0.000340
0.000037
0.000643
0.001552
0.002764
0.002764
0.001249
0.002158
0.002764
0.003370
0.002461
0.001552
0.003370
0.002764
0.001855
0.002461
0.004279
0.002764
0.001249
0.000037
0.000037
0.000037
0.000340
-0.000266
0.000037
0.000340
0.000037
0.000643
0.000643
0.001552
0.001855
0.000643
0.000946
0.000946
-0.000266
0.000037
0.001249
0.000037
0.000340
0.000037
0.000340
0.000643
0.000946
0.000037
0.001552
0.000340
0.000946
0.000946
0.000643
0.000037
0.000340
0.002461
0.002764
0.000037
-0.012688
-0.032684
-0.046318
-0.033290
-0.015717
-0.006022
-0.002992
0.000643
0.001249
0.000946
0.000340
0.000643
0.002461
0.001552
0.001249
0.002158
0.002461
0.002158
0.002461
0.002158
0.002461
0.002158
0.001552
0.001249
0.002461
0.000643
0.001552
0.001249
0.000643
-0.000266
0.000340
0.000340
0.000037
0.000037
0.000340
0.000037
0.000340
0.000946
0.000037
0.000037
0.000037
-0.000569
0.000037
0.000037
-0.000266
0.000037
-0.000266
0.000037
-0.000266
-0.000569
0.000037
0.000037
0.000037
0.000946
0.000643
0.000037
0.000643
0.000643
0.000643
0.001249
0.000946
0.001552
0.000037
0.000946
0.000037
0.001249
0.000037
0.000946
0.002158
0.001552
0.000037
-0.000872
0.000037
0.001249
0.000037
-0.000872
0.003976
0.000643
-0.000569
0.000643
0.000037
0.001855
0.001249
0.000037
0.000946
0.000643
0.000037
0.002158
0.001249
0.000643
0.002158
0.002461
0.003976
0.001552
-0.003598
-0.021474
-0.043288
-0.041774
-0.024807
-0.010264
-0.002992
0.001855
0.003067
0.003673
0.003370
0.002764
0.002764
0.002764
0.003370
0.003673
0.003673
0.003976
0.003370
0.003067
0.003067
0.003370
0.003370
0.002764
0.003067
0.003370
0.003370
0.003976
0.004582
0.002764
0.003067
0.003067
0.004279
0.002764
0.001249
0.001855
0.001249
0.001249
0.000946
0.000037
0.000643
0.000037
0.000643
0.001855
0.001552
0.001855
0.000946
0.000643
0.002461
0.003067
0.002461
0.001855
0.002158
0.003067
0.003370
0.004279
0.003370
0.002461
0.002764
0.003673
0.000340
0.001855
0.001249
0.003370
0.001855
0.002158
0.001552
0.001552
0.003370
0.006703
0.003370
-0.005113
-0.026322
-0.042985
-0.032078
-0.014506
-0.005113
-0.000266
0.003370
0.002764
0.002764
0.002461
0.001552
0.002158
0.001855
0.002461
0.002764
0.001855
0.002158
0.001249
0.000340
0.002764
0.000340
0.001249
0.000946
0.000340
0.002461
0.000340
0.001552
0.001249
0.002158
0.000643
0.000643
0.001552
0.001552
0.000037
0.000037
0.000037
0.000037
0.000037
0.000340
0.000643
0.000340
0.001552
0.001249
0.000946
0.001249
0.001855
0.000946
0.001855
0.001249
0.000643
0.000643
0.001855
0.000643
0.000340
0.000340
0.001249
0.001552
0.001855
0.002158
0.003370
0.001552
0.002158
0.001855
0.003067
0.001249
0.003067
0.003673
0.003673
0.003067
0.003067
0.002764
0.002764
0.002764
0.002461
0.003067
0.003067
0.002461
0.003067
0.003067
0.004885
0.003673
0.003067
0.004582
0.003673
0.003370
0.002764
0.003370
0.002764
0.003976
0.002764
0.002764
0.002461
0.001855
0.001552
0.002461
0.002158
0.003067
0.005188
0.005794
0.002158
-0.008143
-0.027837
-0.037532
-0.026322
-0.012688
-0.004810
0.000037
0.003370
0.002158
0.001855
0.001855
0.002461
0.001855
0.001249
0.001249
0.000946
0.000643
0.000946
0.002158
0.000946
0.001855
0.002764
0.001552
0.003067
0.000340
0.002461
0.001249
0.002158
0.000340
0.000037
0.000946
0.000643
0.000340
0.000340
0.000340
0.000037
0.000946
0.001249
0.000340
0.001249
0.001249
0.002461
0.002158
0.001855
0.001855
0.003976
0.004279
0.005188
0.004885
0.003370
0.003067
0.002158
0.002461
0.002461
0.000946
0.000340
0.000037
0.000340
-0.001781
-0.003295
-0.003901
-0.006022
-0.005113
-0.005113
-0.005113
-0.004204
-0.004810
-0.004204
-0.004507
-0.003598
-0.001781
-0.001781
-0.003598
-0.001478
-0.000872
-0.001478
-0.001175
0.000037
-0.000569
-0.000266
-0.000266
0.000037
0.001249
0.002461
0.000037
-0.001175
0.000643
0.000037
0.000643
-0.001478
-0.002689
-0.001478
-0.000872
-0.000266
-0.000569
-0.000569
-0.001478
-0.000569
0.000037
-0.000266
0.000340
0.000340
0.000643
0.000643
0.001855
0.001855
0.002158
0.003067
0.002158
0.003067
0.003067
0.003067
0.004582
0.001249
0.000643
0.000340
0.000037
0.000643
0.001249
0.001249
0.001552
0.000037
-0.003901
-0.016929
-0.025413
-0.020262
-0.013294
-0.007234
-0.003295
0.000037
0.003067
0.005491
0.005188
0.007612
0.007006
0.006097
0.006703
0.006703
0.005188
0.005794
0.006400
0.003067
0.001552
0.003370
0.000037
0.000946
0.000340
0.000340
0.000340
0.000340
0.000340
0.001552
0.001855
0.001552
0.001552
0.000037
0.000340
0.000037
-0.001478
-0.002084
-0.003295
-0.004810
-0.005416
-0.007234
-0.008749
-0.008446
-0.009355
-0.009355
-0.008143
-0.005113
-0.000569
0.001855
0.003370
0.003067
0.004582
0.006097
0.006400
0.007006
0.007612
0.008218
0.009430
0.008824
0.009430
0.010945
0.010036
0.008824
0.008824
0.010945
0.007612
0.001249
-0.000872
-0.000266
0.000037
0.000037
-0.002084
-0.002386
-0.003295
-0.003598
-0.004204
-0.004507
-0.005416
-0.004810
-0.004810
-0.005416
-0.003295
-0.000872
0.000037
-0.000266
-0.001478
-0.002386
-0.000872
0.000037
0.000037
0.002764
0.002764
0.001552
-0.000872
-0.004810
-0.006628
-0.008446
-0.008446
-0.011779
-0.015717
-0.026322
-0.038441
-0.036017
-0.029351
-0.022989
-0.016323
-0.010567
-0.007234
-0.006325
-0.006022
-0.009355
-0.009052
-0.006931
-0.004810
-0.003901
-0.002084
0.000037
0.000946
0.002461
0.002764
0.002461
0.003067
0.001552
0.000340
0.002461
0.004279
0.009127
0.014580
0.018216
0.019428
0.015792
0.011550
0.005794
0.000340
-0.002992
-0.006628
-0.006931
-0.006022
-0.003598
-0.000872
0.000643
0.000340
0.002158
0.003067
0.002764
0.004279
0.004885
0.004582
0.002764
0.001249
0.000037
0.000037
0.000643
0.000340
0.001855
0.002764
0.004885
0.004582
0.004582
0.004885
0.003673
0.003976
0.003370
0.003976
0.003067
0.002764
0.002461
0.001249
0.001552
0.002764
0.004885
0.005794
0.003976
0.004279
0.004279
0.004582
0.005794
0.002461
-0.002992
-0.012082
-0.017535
-0.011476
-0.006325
-0.002386
0.000946
0.004582
0.005188
0.007309
0.007309
0.006097
0.005491
0.005491
0.003673
0.003067
0.003067
0.001855
0.002158
0.002158
0.002158
0.001552
0.002158
0.002158
0.000946
0.001249
0.001552
0.001552
0.000037
-0.000872
-0.001175
-0.002084
-0.002992
-0.003901
-0.003598
-0.001781
0.000340
0.000340
0.001855
0.001855
0.002158
0.000037
0.000037
0.000037
-0.002992
-0.004204
-0.003901
-0.002992
-0.002084
-0.001781
-0.001781
-0.000569
-0.000266
-0.000569
-0.000266
-0.001478
-0.001175
0.000037
0.001552
0.001249
0.001249
0.001855
0.000340
0.002764
0.002158
0.002461
0.001249
0.000946
0.000340
0.000643
0.000037
0.000340
0.002461
0.003976
0.005188
0.006703
0.008824
0.008824
0.010339
0.011853
0.010036
0.008521
0.008521
0.007915
0.005794
0.006097
0.003976
0.003976
0.003370
0.002158
0.002764
0.006097
0.003673
0.002158
-0.006022
-0.013900
-0.014203
-0.007234
-0.002386
0.000340
0.003067
0.004582
0.006703
0.005491
0.004582
0.004582
0.003370
0.006400
0.002158
0.001249
0.000340
0.001855
-0.000872
-0.000266
0.000340
0.000946
0.003976
0.003976
0.001552
0.002461
0.003067
0.001552
0.001855
0.002764
0.003067
0.003976
0.004885
0.004582
0.006097
0.006400
0.007612
0.005794
0.006097
0.006400
0.005188
0.004582
0.003067
0.002461
0.001552
0.001855
0.000037
0.000037
0.000037
0.000037
0.000037
0.000037
0.001249
0.002461
0.003976
0.004885
0.005188
0.005794
0.005188
0.006400
0.005491
0.004885
0.003976
0.003067
0.003370
0.005491
0.004279
0.005188
0.006400
0.005794
0.005794
0.007309
0.007309
0.005794
0.007612
0.007309
0.003370
-0.004507
-0.012688
-0.013597
-0.008446
-0.000872
0.004279
0.009430
0.013974
0.016701
0.018216
0.014277
0.014883
0.015489
0.013974
0.014580
0.010036
0.008521
0.011853
0.006400
0.002461
0.001249
0.001249
0.000340
0.000037
-0.000569
-0.000266
-0.003295
-0.002689
0.000946
0.006703
0.010945
0.014277
0.015489
0.017004
0.018519
0.018519
0.018822
0.017004
0.015489
0.016095
0.015489
0.017913
0.019125
0.020337
0.019125
0.015489
0.013065
0.006400
-0.007840
-0.019050
-0.031775
-0.037532
-0.056013
-0.059346
-0.020565
0.012156
0.011550
0.010339
0.011550
0.010945
0.013974
0.014580
0.016398
0.018216
0.013065
-0.008749
-0.014809
-0.007537
0.007006
0.020034
0.020337
0.020640
0.018822
0.021852
0.020337
0.023064
0.021852
0.023064
0.026699
0.015489
0.005188
0.000643
-0.007537
-0.013597
-0.019050
-0.022383
-0.026019
-0.032381
-0.035108
-0.032987
-0.030563
-0.027534
-0.025110
-0.024807
-0.024201
-0.024201
-0.023898
-0.024201
-0.022989
-0.025110
-0.026322
-0.027534
-0.027534
-0.026625
-0.026322
-0.026019
-0.025110
-0.025413
-0.025716
-0.024201
-0.024201
-0.023292
-0.022686
-0.020868
-0.014809
-0.013294
-0.016929
-0.015717
-0.016626
-0.010870
0.004279
0.017913
-0.015112
-0.026019
-0.021474
-0.013597
-0.008143
0.000340
0.003976
0.003673
-0.007537
-0.017838
-0.019050
-0.016929
-0.019353
-0.015112
-0.002386
0.005794
0.007915
0.000037
-0.010870
-0.017838
-0.016323
-0.012082
-0.007234
-0.001175
0.003673
0.003976
0.000643
-0.003598
-0.010264
-0.012385
-0.013597
-0.012082
-0.015112
-0.013597
-0.010567
-0.007234
-0.001478
-0.000266
0.003370
0.004885
0.004885
0.007309
0.010339
0.010339
0.010036
0.007612
0.004279
0.003067
0.002461
0.000643
-0.001781
-0.000266
-0.000872
-0.002084
-0.001781
-0.001478
-0.001781
-0.001781
-0.001478
0.000037
0.000946
0.001249
0.000340
-0.003598
-0.008749
-0.016929
-0.017232
-0.016020
-0.015717
-0.012688
-0.011779
-0.009961
-0.007234
-0.006931
-0.006325
-0.003295
-0.002689
-0.000569
-0.002992
-0.005113
-0.001175
0.002158
0.004279
-0.000872
-0.017232
-0.029654
-0.031169
-0.021171
-0.013900
-0.009052
-0.006931
-0.006931
-0.008446
-0.008446
-0.005719
-0.002689
-0.000266
0.000340
0.001249
0.000946
0.002461
0.000340
-0.002386
-0.004204
-0.003598
-0.004204
-0.003901
-0.004507
-0.005416
-0.005416
-0.005416
-0.005719
-0.006325
-0.005719
-0.005719
-0.005416
-0.002386
0.000946
0.001855
0.000946
0.000037
-0.000872
-0.001478
-0.001175
-0.001781
-0.002689
-0.002992
-0.000266
0.002764
0.007006
0.008824
0.008824
0.009733
0.010945
0.010642
0.011550
0.010945
0.008218
0.007006
0.004885
0.004279
0.006400
0.010036
0.014277
0.015489
0.016095
0.016701
0.016701
0.014277
0.013368
0.012762
0.012156
0.010945
0.010642
0.009430
0.008218
0.006703
0.004885
0.004582
0.003370
0.003673
0.004582
0.005188
0.007006
0.007309
0.007309
0.008218
0.008218
0.008218
0.008521
0.007915
0.008521
0.008218
0.007915
0.008521
0.010036
0.007915
0.007612
0.007915
0.011853
0.008218
0.006703
0.004885
0.001249
0.000037
-0.000266
0.000037
-0.000872
-0.000569
-0.001478
-0.001478
-0.002084
-0.002689
-0.003598
-0.003295
-0.003295
-0.002386
-0.004204
-0.006628
-0.014809
-0.024807
-0.027534
-0.020262
-0.015415
-0.011173
-0.006022
-0.002084
-0.001175
0.001552
0.000946
0.000340
0.002158
0.001855
0.001855
0.001249
0.000037
-0.000872
0.000037
-0.000266
-0.002084
-0.004204
-0.006022
-0.005719
-0.004810
-0.004810
-0.003901
-0.004204
-0.003295
-0.004507
-0.003295
-0.000569
0.006400
0.007915
0.007006
0.006097
0.003673
0.002158
0.001855
0.001855
0.000340
0.000037
-0.000569
-0.001478
-0.001478
-0.000266
-0.000569
-0.002084
-0.002992
-0.002992
-0.002992
-0.000569
0.000037
0.000946
0.001249
0.003067
0.001855
0.001249
0.000946
0.004279
0.002764
0.002158
0.001249
0.001552
0.003067
0.001855
0.001552
0.001855
0.003067
0.004279
0.004885
0.005188
0.004885
0.005188
0.005794
0.006703
0.006400
0.006097
0.003976
0.002461
0.000946
0.000643
-0.001175
-0.001781
-0.002992
-0.003598
-0.002992
-0.001781
0.000340
0.003067
0.003976
0.003673
0.001855
-0.007537
-0.017535
-0.015415
-0.008446
-0.003901
-0.000872
0.002158
0.002764
0.003976
0.004885
0.004885
0.006703
0.006703
0.007612
0.008521
0.007309
0.006400
0.006400
0.006400
0.006097
0.006703
0.006097
0.005491
0.005794
0.004885
0.004279
0.003976
0.004885
0.004885
0.004582
0.004279
0.003673
0.003370
0.002461
0.001855
0.002461
0.001552
0.002461
0.000946
0.000946
0.000946
0.000946
0.001249
0.000946
0.001855
0.002158
0.002158
0.002764
0.003976
0.003370
0.002461
0.001855
0.003067
0.004279
0.003673
0.003976
0.003067
0.004279
0.004885
0.004279
0.003370
0.002764
0.002158
0.003976
0.007309
0.010339
0.008218
0.006097
0.005491
0.006097
0.007309
0.010642
0.010642
0.010945
0.012762
0.014883
0.014580
0.013671
0.011853
0.011247
0.005188
0.000037
-0.010264
-0.019353
-0.016323
-0.011779
-0.008143
-0.002084
0.000037
0.000037
-0.000872
-0.000569
-0.000569
0.000037
0.000946
0.002461
0.004279
0.004885
0.006400
0.004582
0.004279
0.003370
0.000643
-0.002386
-0.004810
-0.004810
-0.001781
-0.001781
-0.004507
-0.004204
-0.003598
-0.002992
-0.002689
-0.001478
-0.001175
-0.004204
-0.005416
-0.004810
-0.009355
-0.001175
0.004885
0.006097
0.005188
0.004582
0.003673
0.001552
0.000946
-0.000872
0.000037
0.001249
0.001552
0.000340
0.000037
-0.002386
-0.006628
-0.010870
-0.012991
-0.017232
-0.021777
-0.020262
-0.017232
-0.014203
-0.012688
-0.010264
-0.006931
-0.006325
-0.005113
-0.004204
-0.002689
0.000340
0.002158
0.000946
-0.001781
-0.004507
-0.006022
-0.004810
-0.004204
-0.004810
-0.004810
-0.001478
-0.000569
0.000037
0.001249
0.001249
0.001552
0.001552
0.002764
0.004582
-0.002689
-0.011779
-0.009355
-0.004507
0.000037
0.000946
0.003067
0.007006
0.009127
0.009127
0.006703
0.002461
-0.003295
-0.003598
0.000037
0.000037
0.000037
0.000643
0.000340
-0.000872
-0.003295
-0.003295
-0.004204
-0.002992
-0.000872
-0.000872
-0.001175
-0.002084
-0.002689
-0.003598
-0.004204
-0.003598
-0.001478
0.000037
0.003976
0.009733
0.013065
0.012459
0.010945
0.005794
0.000340
-0.000569
0.006400
0.026699
0.035183
0.035486
0.035183
0.033971
0.030638
0.026093
0.019731
0.011247
0.000340
-0.010567
-0.016626
-0.017535
-0.012991
-0.009961
-0.008749
-0.003598
0.000037
0.002158
0.001855
0.003673
0.005188
0.009430
0.010642
0.008521
0.006400
0.003370
0.002158
0.001855
0.001855
0.001249
0.000643
0.000946
0.000946
0.001855
0.002461
0.002764
0.003067
0.002158
0.002158
0.002461
0.002158
0.001249
0.001249
0.000037
0.000037
-0.001175
-0.001175
-0.000266
-0.002084
-0.000569
-0.002084
-0.000266
0.001249
0.002461
0.002764
0.002461
0.002461
0.003673
0.003673
0.004582
0.005188
0.003673
0.003673
0.001855
0.000037
-0.002992
-0.005719
-0.007537
-0.008143
-0.008749
-0.012082
-0.012991
-0.022080
-0.029957
-0.025413
-0.019050
-0.012082
-0.006628
-0.002084
0.000037
0.000037
-0.001175
-0.000872
0.000037
-0.001478
-0.001781
-0.001478
-0.001781
-0.000872
-0.000872
-0.001175
-0.000872
-0.002386
-0.004810
-0.006325
-0.006628
-0.005719
-0.005416
-0.006931
-0.004204
-0.002386
-0.000569
0.000037
0.001249
0.000946
0.001249
0.001552
0.001552
-0.000266
0.000643
-0.000569
-0.001781
-0.001478
-0.001781
-0.002084
-0.002386
-0.002689
-0.002386
-0.000569
-0.000569
0.000946
0.002158
0.002764
0.005491
0.007915
0.007309
0.006703
0.006703
0.008521
0.008521
0.006703
0.004582
0.007309
0.008521
0.008824
0.008521
0.004582
-0.001175
-0.006931
-0.011476
-0.016323
-0.020262
-0.019656
-0.017838
-0.017535
-0.016929
-0.018747
-0.018747
-0.016020
-0.006931
0.000037
0.003067
0.005491
0.006400
0.008218
0.009127
0.009430
0.008218
0.007006
0.007612
0.005794
0.006400
0.006400
0.005794
0.006097
0.005188
0.003673
0.003976
0.003673
0.004279
0.005188
0.003673
0.003067
0.000946
-0.001478
-0.002689
0.000037
0.001855
0.000037
-0.004204
-0.012688
-0.016929
-0.008446
-0.002386
0.001249
0.004885
0.007612
0.008521
0.008824
0.008218
0.007612
0.007915
0.007309
0.007915
0.008824
0.007915
0.008521
0.008218
0.008824
0.009430
0.008521
0.007612
0.007915
0.006703
0.005188
0.003976
0.003673
0.003370
0.003976
0.003067
0.001855
0.000946
0.000946
-0.000569
-0.001478
-0.001175
-0.001478
-0.001175
-0.001175
-0.000872
-0.001175
-0.001175
-0.001781
-0.002084
-0.001781
-0.001478
-0.001175
-0.002386
-0.001478
-0.002689
-0.003295
-0.003901
-0.004204
-0.004507
-0.004810
-0.005113
-0.005719
-0.005416
-0.004810
-0.003901
-0.004507
-0.004810
-0.003598
-0.002992
-0.004204
-0.003295
-0.004204
-0.003295
-0.002689
-0.001781
-0.001781
-0.002386
-0.002084
-0.002084
-0.002084
-0.002084
-0.001478
-0.002386
-0.002084
-0.002689
-0.003598
-0.003598
-0.003598
-0.002992
-0.002689
-0.004204
-0.005113
-0.004507
-0.005113
-0.005113
-0.005113
-0.005719
-0.004810
-0.005113
-0.005113
-0.004507
-0.005416
-0.004810
-0.004204
-0.004507
-0.003901
-0.004810
-0.000569
-0.005113
-0.006628
-0.016626
-0.022686
-0.019050
-0.011779
-0.009961
-0.006931
-0.002689
-0.000872
-0.000266
0.000037
0.000946
0.002158
0.002158
0.002158
0.002461
0.002764
0.005188
0.005188
0.004885
0.005491
0.008218
0.004885
0.007006
0.005491
0.004279
0.003370
0.003673
0.001552
0.001552
0.002461
0.000340
0.000946
0.000037
-0.002084
-0.001781
-0.001478
-0.000266
0.002158
0.001855
-0.001781
0.000643
0.003673
0.008824
0.010642
0.013974
0.011853
0.006400
0.004885
0.005794
0.007309
0.007309
0.005794
0.003976
0.003370
0.001855
-0.005113
-0.004204
0.002461
0.007006
0.019731
0.019428
0.015489
0.013065
0.016701
0.022458
0.025184
0.022761
0.026093
0.020640
0.019428
0.014580
0.007006
0.005188
0.004279
0.000037
-0.005719
-0.007840
-0.007537
-0.008749
-0.010264
-0.010264
-0.007234
-0.009052
-0.010567
-0.008446
-0.008446
-0.008749
-0.010567
-0.007537
-0.005416
-0.004204
-0.002084
-0.009355
-0.006022
-0.002386
-0.004204
-0.007234
-0.018141
-0.026928
-0.018141
-0.006325
0.000037
0.003673
0.002764
0.002158
0.006400
0.005794
0.003673
0.000946
0.006703
0.023064
0.039424
0.049423
0.053664
0.083053
0.073055
0.059421
0.049120
0.033668
0.018216
0.008824
-0.006325
-0.014809
-0.013900
-0.014506
-0.017535
-0.022686
-0.028746
-0.032684
-0.036320
-0.039350
-0.037532
-0.037835
-0.034199
-0.032987
-0.029957
-0.025716
-0.024807
-0.024201
-0.022686
-0.022686
-0.021474
-0.019656
-0.019050
-0.018444
-0.018444
-0.017838
-0.018747
-0.019050
-0.017535
-0.015415
-0.006628
0.003067
-0.008446
-0.009961
0.011550
0.033971
0.032153
0.014580
-0.012991
-0.033593
-0.039350
-0.046924
-0.050863
-0.050257
-0.049954
-0.047833
-0.042380
-0.030563
-0.016626
-0.002689
0.002764
0.007915
0.007006
0.005188
0.005794
0.008521
0.009430
0.009127
0.010642
0.012459
0.011247
0.009430
0.005188
0.000643
0.000037
0.000037
0.000643
0.003976
0.009733
0.016398
0.020640
0.027305
0.033062
0.040636
0.036092
0.050938
0.043666
0.034577
0.023064
0.016701
0.015186
0.024578
0.036092
0.042151
0.044575
0.037304
0.035486
0.042757
0.045787
0.045484
0.044272
0.043969
0.039727
0.029729
0.017004
0.008521
-0.000569
-0.008749
-0.019959
-0.028140
-0.034199
-0.031775
-0.027837
-0.028140
-0.027231
-0.030866
-0.024807
-0.022989
-0.019353
-0.011173
-0.004204
-0.001175
0.007915
0.013368
0.013974
0.014580
0.018519
0.030032
0.043060
0.049423
0.051846
0.051846
0.049423
0.053058
0.054270
0.047302
0.049120
0.054270
0.061845
0.058512
0.056997
0.050332
0.036395
0.020943
0.004279
-0.005416
-0.016929
-0.016626
-0.022080
-0.032987
-0.034502
-0.047833
-0.067830
-0.082675
-0.099642
-0.116306
-0.104490
-0.092674
-0.101157
-0.109035
-0.109035
-0.090553
-0.068739
-0.068133
-0.058437
-0.069042
-0.057225
-0.020868
-0.005719
-0.008749
-0.018747
-0.014203
-0.009658
-0.001175
-0.001478
-0.000569
0.002764
-0.004204
-0.004810
-0.005719
-0.003598
0.000037
0.000037
0.003976
0.008218
0.011247
0.014580
0.011550
0.008218
0.007612
0.005794
0.002158
-0.002992
-0.005719
-0.006325
-0.005113
-0.002084
0.001855
0.006400
0.016095
0.021549
0.026093
0.024881
0.021246
0.020943
0.021549
0.019428
0.017004
0.022155
0.024578
0.027911
0.018822
0.025487
0.027911
0.027002
0.014277
0.000037
-0.013294
-0.015415
-0.011476
-0.006628
-0.000266
0.008824
0.010642
0.010036
0.015489
0.024881
0.033365
0.042151
0.050332
0.053361
0.058209
0.063360
0.061845
0.061542
0.061845
0.045484
0.017610
-0.012688
-0.040259
-0.052984
-0.055408
-0.052378
-0.042077
-0.026322
-0.022383
-0.030260
-0.029351
-0.029049
-0.022080
-0.013900
-0.010870
-0.004507
-0.002084
0.000037
0.002764
0.004279
0.002764
-0.000569
0.000037
0.003370
0.004582
0.000037
-0.014809
-0.029351
-0.036017
-0.030260
-0.027534
-0.013597
-0.015112
-0.005719
-0.002992
0.000340
0.002158
0.004582
0.007006
0.009430
0.013671
0.015792
0.013368
0.009430
0.004279
-0.002084
-0.009355
-0.009961
-0.008749
-0.007234
-0.002689
0.000037
0.003370
0.010339
0.012762
0.014277
0.017307
0.016095
0.015792
0.013368
0.014883
0.017913
0.018822
0.019731
0.019428
0.018519
0.013974
0.012156
0.007612
0.001552
-0.008143
-0.018141
-0.022989
-0.029351
-0.025413
-0.013294
-0.000872
0.004885
0.007006
0.008521
0.006703
0.003976
0.003370
0.000946
-0.000266
-0.005113
-0.006931
-0.006931
-0.003901
-0.001781
-0.001175
0.005188
0.009127
0.011247
0.010036
0.009127
0.003370
0.002461
0.003370
0.001855
-0.002992
-0.006628
-0.014506
-0.018444
-0.021777
-0.022080
-0.023898
-0.024807
-0.023595
-0.021777
-0.022383
-0.026928
-0.032684
-0.023292
-0.008143
0.000643
0.012459
0.018519
0.022155
0.029729
0.038212
0.041545
0.040636
0.031547
0.028820
0.013671
0.006097
0.006097
-0.003901
-0.008446
-0.004507
-0.012991
-0.027231
-0.031775
-0.030866
-0.024807
-0.017838
-0.015415
-0.015112
-0.019353
-0.018444
-0.023292
-0.024504
-0.023292
-0.021474
-0.022080
-0.023292
-0.024201
-0.025110
-0.027231
-0.019959
-0.006628
0.011550
0.025487
0.020640
0.014883
0.009127
0.002764
-0.002084
-0.006931
-0.011173
-0.007840
-0.010264
-0.016020
-0.012688
-0.006931
0.000643
0.013065
0.018519
0.021549
0.020943
0.017913
0.015186
0.011247
0.010339
0.011247
0.010339
0.010339
0.011247
0.013368
0.013368
0.014883
0.013974
0.011853
0.013671
0.018216
0.015186
0.016398
0.015792
0.016095
0.011550
0.006703
0.004582
-0.001478
-0.007537
-0.020262
-0.036320
-0.037229
-0.037229
-0.036623
-0.032684
-0.029957
-0.027534
-0.021474
-0.013900
-0.007537
-0.001175
0.000946
0.003370
0.007915
0.007612
0.007006
0.004582
0.001855
0.000340
-0.003901
-0.005113
-0.006931
-0.006325
-0.008446
-0.006931
-0.009658
-0.006931
-0.000872
0.000037
0.002461
0.006703
0.007309
0.010642
0.008218
0.002461
0.000037
0.001249
0.001855
0.004582
0.006703
0.009127
0.012762
0.016095
0.025184
0.029729
0.030335
0.034577
0.043363
0.040030
0.043363
0.045787
0.040939
0.033668
0.029729
0.030335
0.027002
0.021246
0.017913
0.023064
0.023670
0.013974
0.010339
0.013368
0.020034
0.026699
0.032153
0.031547
0.017913
0.009127
0.002764
0.000340
-0.003598
-0.005719
-0.005719
-0.005416
-0.011779
-0.020565
-0.030563
-0.031775
-0.003598
-0.017535
-0.069042
-0.062982
-0.042077
-0.031775
-0.022989
-0.013597
-0.008143
-0.002992
-0.004810
-0.005416
-0.003295
-0.002689
-0.005113
-0.005416
-0.006931
-0.006931
-0.009658
-0.012688
-0.014203
-0.014809
-0.012082
-0.012991
-0.015112
-0.011173
-0.006628
-0.004507
-0.002992
0.006097
0.013671
0.011550
0.010642
0.005491
-0.000872
-0.007840
-0.012082
-0.012082
-0.012385
-0.015717
-0.016323
-0.018747
-0.022686
-0.011779
-0.000266
0.010036
0.018216
0.027911
0.034577
0.035183
0.034274
0.034274
0.030638
0.027002
0.020640
0.012762
0.011853
0.006703
0.002764
-0.000872
-0.005719
-0.007234
-0.010567
-0.012385
-0.014809
-0.015415
-0.012688
-0.010870
-0.011476
-0.010870
-0.009961
-0.010870
-0.007840
-0.002386
0.000037
-0.002992
-0.014506
-0.013294
-0.008446
-0.006022
-0.006628
-0.006022
-0.005719
-0.008446
-0.007234
-0.008446
-0.005719
-0.002992
-0.001478
-0.000872
-0.002084
-0.006022
-0.003901
0.006703
0.012762
0.021852
0.021246
0.011550
0.003370
0.000340
-0.006325
-0.019050
-0.013597
-0.009658
-0.004507
0.013671
0.044878
0.036698
0.008218
-0.002992
-0.002689
0.006703
-0.003901
0.000340
-0.001478
0.013671
0.010945
0.003370
-0.006931
-0.011476
-0.012991
-0.018747
-0.002992
0.000946
-0.005416
-0.000569
-0.006931
0.006400
0.029729
0.033971
0.027911
0.025487
0.023064
0.016398
0.014277
0.010339
0.004885
0.000643
-0.002992
-0.001478
0.003673
0.012156
0.014580
0.013974
0.011853
0.005491
-0.003901
-0.011173
-0.016626
-0.016323
-0.013597
-0.012082
-0.008143
-0.005416
-0.001781
0.000037
0.000946
0.007006
0.010339
0.012156
0.006097
0.000037
0.000946
0.000643
0.001249
0.004279
0.006097
0.006703
0.007309
0.006097
0.004279
0.001552
-0.002386
-0.007234
-0.013294
-0.020868
-0.030563
-0.033593
-0.028746
-0.019050
-0.007537
-0.005416
-0.006931
-0.008749
-0.015717
-0.026322
-0.024807
-0.021171
-0.017535
-0.012385
-0.008446
-0.002992
-0.000266
0.003067
0.004582
0.003067
0.003370
0.002158
0.000037
-0.000266
-0.002992
-0.001781
0.001249
0.003976
0.006097
0.005794
0.010642
0.011247
0.009430
0.008218
0.008521
0.011550
0.007309
-0.011476
-0.047833
-0.050863
-0.048439
-0.040259
-0.036926
-0.028443
-0.020565
-0.013294
-0.010870
-0.016323
-0.016626
-0.021474
-0.020262
-0.017535
-0.017232
-0.011779
-0.004507
0.001249
0.010339
0.018519
0.020337
0.014580
0.010339
0.007612
0.006400
0.006400
0.007915
0.009733
0.013368
0.014883
0.013974
0.020943
0.024881
0.031244
0.033365
0.032153
0.030638
0.034577
0.034577
0.023064
0.030941
0.064874
0.049120
0.049423
0.046999
0.048514
0.093960
0.087295
0.079417
0.081538
0.083053
0.077902
0.063057
0.046696
0.034577
0.037304
0.033365
0.035486
0.031244
0.022458
0.020640
0.018216
0.016095
0.018822
0.012762
0.005794
-0.016626
-0.033593
-0.027837
-0.037532
-0.043894
-0.057528
-0.052681
-0.043894
-0.037835
-0.040259
-0.056013
-0.046924
-0.060255
-0.074192
-0.071768
-0.049651
-0.039350
-0.036623
-0.031169
-0.020262
-0.019656
-0.023595
-0.031472
-0.030866
-0.044500
-0.052075
-0.060558
-0.056619
-0.051469
-0.054499
-0.047530
-0.044803
-0.039956
-0.039047
-0.036926
-0.033896
-0.030260
-0.023292
-0.018747
-0.022383
-0.016020
-0.022383
-0.038744
-0.061164
-0.088129
-0.121154
-0.105096
-0.081767
-0.037835
-0.025413
-0.007234
0.010036
0.024881
0.028517
0.028517
0.027608
0.030638
0.030335
0.030335
0.030638
0.029729
0.029729
0.026093
0.023064
0.026699
0.025184
0.028214
0.003673
0.000037
0.002461
-0.000266
-0.016929
-0.024807
-0.021171
-0.007840
0.016701
0.025790
0.038212
0.055179
0.069419
0.070934
0.043060
0.007612
-0.016626
-0.020565
-0.007537
0.008218
0.017307
0.010642
-0.001175
-0.021474
-0.024504
-0.007234
0.013368
0.020943
0.024578
0.033365
0.037001
0.046393
0.056391
0.068510
0.070631
0.075176
0.072146
0.071843
0.016095
-0.039653
-0.042682
-0.027837
-0.000872
0.016095
0.033668
0.038818
0.046090
0.045787
0.041242
0.042151
0.033062
0.021549
0.014277
0.002764
-0.008749
-0.009658
-0.009658
-0.010870
-0.011779
-0.018444
-0.031775
-0.046318
-0.050560
-0.054196
-0.049045
-0.042077
-0.039956
-0.039047
-0.036017
-0.022080
-0.002992
0.019428
0.032153
0.043363
0.031244
0.044878
0.060027
0.062754
0.045484
0.015489
-0.042682
-0.022686
-0.003295
0.005794
0.007309
0.011247
0.010036
0.011550
0.012762
0.012156
0.016398
0.017610
0.020034
0.018822
0.012156
0.013065
0.012762
0.011247
0.009733
0.006400
0.006703
0.006097
0.005491
0.006097
0.005188
0.004279
0.002764
-0.000569
-0.000872
-0.004204
-0.005113
-0.012688
-0.029654
-0.035108
-0.042077
-0.045409
-0.047833
-0.048439
-0.044197
-0.042077
-0.038138
-0.038138
-0.032987
-0.017838
-0.009658
-0.004507
-0.000872
-0.002386
-0.004507
-0.010264
-0.022686
-0.049348
-0.052075
-0.002992
-0.023595
-0.013294
-0.004810
0.000037
0.009733
0.019125
0.017307
0.010642
0.008218
0.003370
0.003067
-0.005416
-0.008446
-0.001478
-0.002992
-0.003598
-0.006325
-0.016323
-0.013900
-0.000872
0.011550
0.017610
0.019428
0.022761
0.015489
0.014580
0.014883
0.012762
0.009733
0.002764
-0.008446
-0.020565
-0.023898
0.023367
0.033365
0.020640
0.018822
0.043969
0.052755
0.041848
0.024881
0.019731
0.014580
0.008218
-0.006325
-0.021171
-0.029049
-0.025413
-0.028746
-0.047530
-0.047530
-0.023292
-0.013294
-0.023292
-0.025716
-0.019353
0.000037
0.014883
0.014883
0.012762
0.008521
0.006703
0.008824
0.008218
0.008218
0.007915
0.005188
0.004582
0.005188
0.002158
0.001552
0.000946
0.002158
0.003673
0.000946
-0.000569
-0.003598
-0.009052
-0.016323
-0.021474
-0.023898
-0.019050
-0.013597
-0.011779
-0.012688
-0.014203
-0.011779
-0.009052
-0.006628
-0.002386
0.012156
0.028820
0.027002
0.018822
0.013065
0.012156
0.009430
0.005794
0.012156
0.019125
0.027608
0.030032
0.019428
-0.004204
-0.023292
-0.027231
-0.018747
-0.011779
-0.003901
0.002461
0.008218
0.010339
0.007006
0.007612
0.006097
0.004279
0.000037
-0.007537
-0.012688
-0.015112
-0.014506
-0.014203
-0.013294
-0.010264
-0.008143
-0.006628
-0.003598
-0.002689
-0.002386
-0.005719
-0.012385
-0.015112
-0.018141
-0.025413
-0.034199
-0.050560
-0.046015
-0.018747
-0.025110
-0.036017
-0.034199
-0.027231
-0.019050
-0.007840
0.000037
0.002158
0.013671
0.018216
0.023367
0.025487
0.018822
0.009127
0.002764
0.001552
0.006097
0.004582
0.004885
0.003370
0.004582
0.009430
0.013974
0.022458
0.029123
0.038212
0.046999
0.054270
0.054573
0.048514
0.044575
0.052755
0.060330
0.062754
0.059724
0.056391
0.052452
0.048817
0.048211
0.045484
0.039424
0.036395
0.032153
0.031850
0.033971
0.033971
0.034577
0.030941
0.022761
0.013368
0.008824
0.002461
-0.006325
-0.017838
-0.024807
-0.030563
-0.028746
-0.025413
-0.025716
-0.019959
-0.013900
-0.012082
-0.009658
-0.005113
-0.004204
-0.002992
-0.004507
-0.002992
-0.004204
-0.005113
-0.008143
-0.010264
-0.011173
-0.013294
-0.014506
-0.020262
-0.031169
-0.048742
-0.056922
-0.048439
-0.041471
-0.034805
-0.028746
-0.027231
-0.023292
-0.020565
-0.019353
-0.018747
-0.019656
-0.020262
-0.022989
-0.025716
-0.029049
-0.024807
-0.020565
-0.017838
-0.018444
-0.019959
-0.020565
-0.021777
-0.019353
-0.021777
-0.021171
-0.024807
-0.025716
-0.031169
-0.018747
0.007915
0.014277
0.018822
0.021549
0.023367
0.019731
0.018822
0.006703
-0.004204
0.004582
0.002764
-0.002992
-0.002689
-0.004810
-0.005416
-0.004204
0.000037
-0.002992
-0.004204
-0.003295
0.005188
0.017004
0.020337
0.028820
0.041545
0.050938
0.045181
0.036698
0.030638
0.019731
-0.006628
-0.023898
-0.014809
-0.021171
-0.005113
-0.000872
0.003067
-0.016323
-0.001175
0.004279
-0.001478
-0.003295
0.011853
0.028820
0.032456
0.034880
0.035183
0.036698
0.033668
0.031547
0.030335
0.030032
0.027002
0.024276
0.020943
0.018822
0.015186
0.011247
0.009127
0.004885
0.003067
0.000946
0.000340
-0.001781
-0.002689
-0.006022
-0.011476
-0.017838
-0.022080
-0.022989
-0.025110
-0.023898
-0.024201
-0.022686
-0.023292
-0.023292
-0.024201
-0.019656
-0.013900
-0.008749
0.000037
0.015489
0.033668
0.019125
0.008824
0.004582
0.002158
-0.002689
-0.011476
-0.011779
-0.010870
-0.007840
-0.009961
-0.008446
-0.008143
-0.009658
-0.007840
-0.008446
-0.008446
-0.006022
-0.007537
-0.005416
-0.006325
-0.006325
-0.006325
-0.006628
-0.006931
-0.006931
-0.005113
-0.001478
-0.001478
0.000037
0.000037
0.002764
0.003976
0.009127
0.017307
0.023367
0.022458
0.018519
0.013065
0.009430
0.007915
0.004582
0.001855
0.000037
0.000037
0.000340
0.000643
0.002764
0.003370
0.002461
0.002764
0.003067
0.002158
0.001249
0.001855
0.000037
0.001552
0.001249
0.003067
0.005794
0.006703
0.008218
0.010339
0.007309
0.006703
0.007006
0.007915
0.008824
0.007006
0.004885
0.003673
0.003976
0.002764
0.001855
0.000037
0.001249
0.006400
-0.000872
-0.001175
-0.000266
0.000037
-0.000266
0.000037
0.000037
-0.000569
-0.000872
0.000340
0.000946
-0.001478
-0.006022
-0.017535
-0.027534
-0.024504
-0.019050
-0.013597
-0.009658
-0.007537
-0.007234
-0.006325
-0.007537
-0.007537
-0.006931
-0.009052
-0.009355
-0.009658
-0.009961
-0.009961
-0.009052
-0.007234
-0.006628
-0.005719
-0.005719
-0.005719
-0.003295
-0.002689
-0.003295
-0.005113
-0.006325
-0.007234
-0.006931
-0.007234
-0.006325
-0.006931
-0.006325
-0.004507
-0.004810
-0.002689
-0.001781
-0.001781
-0.002084
-0.000872
0.000037
0.000037
-0.001175
-0.000872
-0.001175
-0.000266
-0.000872
-0.000872
-0.000569
0.000037
-0.000266
-0.001781
-0.003598
-0.003295
-0.002689
-0.003901
-0.003598
-0.005416
-0.006628
-0.005113
-0.005416
-0.004507
-0.004204
-0.003598
-0.003598
-0.004204
-0.001781
-0.001175
0.000037
0.000037
0.003067
0.007006
0.010339
0.011550
0.010945
0.009127
0.011247
0.005491
-0.000569
-0.012082
-0.022080
-0.016626
-0.010870
-0.003598
0.000037
0.006097
0.003673
-0.001175
-0.003598
-0.008446
-0.009961
-0.010870
-0.009961
-0.009355
-0.006325
-0.004810
-0.009052
-0.019656
-0.029049
-0.032987
-0.018747
0.001249
0.017610
0.025790
0.032759
0.030941
0.021246
0.011550
0.008218
-0.000266
-0.003598
0.011853
0.034577
0.037001
0.021852
-0.000266
-0.023595
-0.026019
-0.014809
-0.000266
0.023064
0.017004
0.000037
-0.008446
-0.013294
-0.012082
-0.007234
0.002461
0.010339
0.011247
0.004582
-0.001175
-0.007234
-0.009052
-0.004507
-0.000266
0.001552
0.006703
0.012156
0.014277
0.015792
0.017913
0.016095
0.007309
0.006097
0.002764
-0.001781
-0.004204
-0.011779
-0.019959
-0.021777
-0.019050
-0.026625
-0.035714
-0.043894
-0.049954
-0.049348
-0.046621
-0.042380
-0.039047
-0.034502
-0.032987
-0.030563
-0.023595
-0.019353
-0.010567
-0.009052
-0.012082
-0.008446
-0.006022
-0.005416
-0.016323
-0.022080
-0.014203
-0.010567
-0.006628
-0.002386
0.003673
0.000643
-0.000872
0.000037
0.002764
0.014883
0.032456
0.044878
0.057906
0.052149
0.035789
0.026699
0.021549
0.023973
0.032153
0.024881
0.017610
0.010642
0.005188
0.004885
0.011550
0.017610
0.027002
0.029426
0.023064
0.029729
0.034577
0.040636
0.050938
0.060936
0.065480
0.061542
0.056088
0.058815
0.060330
0.055179
0.052149
0.050029
0.047605
0.052149
0.054876
0.058815
0.060633
0.061542
0.059421
0.056694
0.043363
0.031850
0.023973
0.014277
0.002158
-0.008143
-0.017535
-0.027837
-0.031169
-0.056013
-0.056619
-0.040865
-0.083887
-0.081767
-0.062679
-0.044500
-0.046318
-0.046621
-0.046924
-0.049954
-0.059649
-0.071465
-0.065103
-0.049954
-0.035108
-0.020565
-0.015717
-0.014506
-0.015415
-0.016020
-0.012991
-0.011173
-0.009355
-0.007234
-0.007840
-0.005416
-0.004507
-0.004810
-0.004810
-0.007234
-0.006931
-0.009052
-0.009658
-0.009052
-0.009658
-0.007840
-0.002992
-0.001478
-0.000569
-0.000872
0.001249
0.004885
0.008218
0.016095
0.021549
0.026396
0.035486
0.045181
0.056088
0.064874
0.065783
0.031850
0.030638
0.035789
0.033365
0.050029
0.050029
0.033365
0.027608
0.016398
-0.009355
-0.012991
-0.014506
-0.019050
-0.030563
-0.046924
-0.055408
-0.056922
-0.063285
-0.064497
-0.062376
-0.049045
-0.008446
0.020943
0.032153
0.029123
0.019125
0.000340
0.008218
0.021246
0.026093
0.015792
-0.007840
-0.007840
0.000643
-0.002689
-0.006931
-0.006628
-0.008446
-0.002992
0.002158
0.000340
-0.002084
-0.006325
-0.005113
-0.005719
-0.010264
-0.001781
0.043363
0.034880
0.018822
0.002764
0.002158
-0.000872
-0.005416
-0.006931
-0.016626
-0.012385
-0.009052
-0.006022
0.000037
0.003976
0.011550
0.015792
0.017307
0.014277
0.010642
0.009127
0.005188
-0.002084
-0.004204
-0.001175
-0.000266
0.002764
0.007915
0.003976
0.000037
0.003976
0.009430
0.002461
0.001855
0.000340
-0.000266
-0.001175
0.000946
0.001855
0.000643
-0.000569
0.000340
-0.004204
-0.006325
-0.006628
-0.006931
-0.009052
-0.018747
-0.033593
-0.032987
-0.026019
-0.015112
-0.007234
0.001249
0.005794
0.003067
0.000037
-0.006022
-0.006628
-0.006931
-0.008143
-0.008143
-0.006628
-0.005113
-0.012385
-0.014506
-0.012082
-0.008446
-0.004810
0.000340
-0.001175
-0.003901
-0.008446
-0.011476
-0.006931
-0.002689
0.000037
0.000946
0.003067
0.003673
0.004582
0.000037
0.000340
0.001855
0.001855
0.002461
0.002158
0.004279
0.002764
0.000643
-0.000569
-0.003901
-0.006628
-0.007840
-0.005719
-0.005719
-0.006022
-0.004507
-0.005416
-0.002992
-0.002084
-0.001175
0.000340
0.000037
0.000037
-0.002084
-0.003295
-0.001781
-0.002386
-0.006628
-0.006931
-0.008446
-0.011173
-0.014203
-0.014809
-0.010870
-0.006022
-0.003901
-0.001478
0.000340
0.004582
0.008218
0.009733
0.009127
0.007006
0.007309
0.006097
0.003673
0.005491
0.005188
0.003673
0.001249
0.001552
0.004279
0.005491
0.005491
0.005491
0.005491
0.013368
0.019125
0.023064
0.023973
0.018519
0.014277
0.014883
0.017004
0.019428
0.018216
0.025790
0.028517
0.026699
0.017610
0.003673
0.005188
0.017913
0.029729
0.037607
0.047605
0.039727
0.031850
0.020943
0.007309
-0.000266
-0.004507
-0.013294
-0.021171
-0.028140
-0.033896
-0.031169
-0.031472
-0.037532
-0.048742
-0.053590
-0.062679
-0.069647
-0.069950
-0.069647
-0.067224
-0.064194
-0.052984
-0.052378
-0.043288
-0.037229
-0.030563
-0.026322
-0.021171
-0.017232
-0.024201
-0.020565
-0.015112
-0.012082
-0.007537
-0.004507
-0.001175
0.001552
0.008824
0.019125
0.027911
0.032759
0.036698
0.038515
0.031850
0.022761
0.014277
0.016398
0.019731
0.019731
0.020337
0.023367
0.021852
0.023367
0.030032
0.026396
0.020943
0.010945
0.005491
0.001552
-0.000569
-0.006931
-0.012688
-0.013900
-0.014809
-0.014203
-0.002992
0.000037
-0.006628
-0.010567
-0.007537
-0.001175
-0.001175
-0.002084
-0.000872
-0.002689
-0.005416
-0.004507
-0.002386
-0.000872
0.002764
0.000643
0.000037
-0.001781
-0.000569
-0.001175
0.000946
-0.010264
-0.016020
-0.009355
0.010036
0.035486
0.048817
0.047908
0.035486
0.038212
0.035789
0.032759
0.027608
0.022155
0.007612
-0.009658
-0.010567
-0.005416
-0.003598
-0.000266
0.001249
0.002764
0.003370
0.003673
0.003976
0.011550
0.011853
0.010945
0.008824
0.004279
0.002764
0.001855
0.002461
0.001249
0.000946
0.002158
0.000946
0.000037
0.002158
0.002764
0.001552
0.001552
-0.002084
-0.005416
-0.001781
0.000037
0.010642
0.008218
0.000643
-0.004507
-0.005416
-0.003901
-0.007234
-0.004507
-0.005113
-0.004204
-0.004810
-0.000569
-0.000569
-0.000569
-0.001175
-0.001781
-0.002084
-0.002386
-0.003901
-0.004810
-0.002992
-0.002084
0.000340
0.007612
0.002158
-0.003901
-0.003901
-0.002084
-0.002689
-0.002386
-0.002084
-0.002689
-0.000266
0.004582
0.009733
0.017913
0.012156
0.007612
0.002764
0.000037
0.002461
0.005794
0.006097
0.004885
0.004279
0.003067
0.001552
0.001552
0.001552
0.003370
0.003976
0.007006
0.007915
0.006400
0.000946
-0.001781
-0.000266
0.002764
0.001552
0.000037
0.000037
0.001552
0.003673
0.002158
0.003976
0.008218
0.007309
-0.002386
-0.018141
-0.024807
-0.014203
-0.004204
0.001249
0.004885
0.005188
0.002461
0.000946
-0.008143
-0.030260
-0.044197
-0.042380
-0.027534
-0.016929
-0.012082
-0.012385
-0.013597
-0.008446
-0.009658
-0.020262
-0.027231
-0.026322
-0.027231
-0.022989
-0.012688
-0.003901
0.006400
0.010036
0.002764
0.001855
0.003067
0.002461
0.002158
-0.000569
-0.002992
-0.004204
-0.006022
-0.003598
-0.000872
-0.001175
-0.000266
0.000340
-0.003295
-0.007840
-0.007234
-0.007840
-0.008143
-0.006325
-0.007537
-0.007840
-0.006628
-0.012991
-0.015415
-0.009961
-0.003598
0.000037
0.004279
0.001249
-0.002386
-0.000569
0.002158
0.006703
0.008521
0.011550
0.014277
0.018216
0.018216
0.020034
0.020034
0.016701
0.015792
0.016095
0.013974
0.013368
0.013368
0.010036
0.008824
0.009430
0.011247
0.011550
0.009127
-0.002689
-0.016020
-0.018747
-0.012688
-0.005416
0.000037
0.005794
0.007915
0.010642
0.011853
0.011853
0.007309
0.007309
0.008218
0.007612
0.006400
0.005491
0.004885
0.004279
0.004885
0.005794
0.006400
0.005794
0.004582
0.005491
0.003976
0.003067
0.000643
0.000037
-0.000872
-0.002992
-0.002689
-0.002386
-0.001781
0.000037
0.000643
0.000037
-0.001175
-0.003598
-0.006022
-0.009961
-0.008749
-0.007537
-0.004507
-0.003598
-0.001175
-0.003598
-0.007234
-0.007537
-0.007537
-0.007234
-0.006628
-0.006931
-0.006022
-0.004810
-0.003901
-0.004204
-0.003901
-0.003901
-0.003295
-0.004507
-0.003598
-0.001478
0.002461
0.003673
-0.000872
-0.011173
-0.028746
-0.036623
-0.024201
-0.013597
-0.005416
0.000643
0.003673
0.003067
0.003067
0.000946
0.000037
-0.000266
-0.001175
0.000037
0.003673
0.001552
0.000340
-0.000266
0.001249
0.004279
0.003067
0.004582
0.004885
0.004279
0.001249
0.000946
0.001855
0.001855
0.004885
0.006703
0.009127
0.007915
0.006703
0.006400
0.007006
0.007612
0.002764
0.010642
0.021246
0.029729
0.026699
0.028517
0.027002
0.023973
0.017004
0.010339
0.008218
0.013065
0.013671
0.016701
0.019125
0.013974
0.007915
-0.008749
-0.024504
-0.033290
-0.035108
-0.029351
-0.011779
-0.001478
0.008521
0.012156
0.010339
0.003673
-0.007537
-0.014809
-0.011173
-0.003295
-0.000266
0.002764
0.001552
-0.026928
-0.043288
-0.036017
-0.024201
-0.016323
-0.019959
-0.019656
-0.019353
-0.019353
-0.019656
-0.015112
-0.004507
0.003673
0.012459
0.017913
0.016398
0.017307
0.026699
0.022155
0.021549
0.007612
0.004885
-0.000872
0.000643
0.004279
0.008824
0.012762
0.023367
0.047908
0.077600
0.054270
0.039121
0.028517
0.025790
0.019428
0.014277
0.010945
0.003976
0.000037
-0.004204
-0.008143
-0.007840
-0.008749
-0.007537
-0.006931
-0.005719
-0.003598
-0.002992
-0.002386
0.000643
-0.001478
-0.000872
-0.002386
-0.001781
0.000037
-0.000266
0.000037
-0.001781
0.000643
-0.001175
-0.004810
-0.003901
-0.007234
-0.008143
-0.006022
-0.004507
0.005188
0.010036
-0.000266
-0.012385
-0.029351
-0.041168
-0.036017
-0.028443
-0.022383
-0.019353
-0.017838
-0.016626
-0.018444
-0.016929
-0.016626
-0.015415
-0.014203
-0.014203
-0.015415
-0.017838
-0.015717
-0.015415
-0.016020
-0.015415
-0.014506
-0.015415
-0.014203
-0.013294
-0.012385
-0.012385
-0.011476
-0.011476
-0.012082
-0.013294
-0.014203
-0.012991
-0.018444
-0.020262
-0.020262
-0.019959
-0.022989
-0.022080
-0.023595
-0.024504
-0.025716
-0.026322
-0.024807
-0.024504
-0.023595
-0.020565
-0.018141
-0.015112
-0.009658
0.001552
0.017004
0.031850
0.043666
0.054270
0.066086
0.073964
0.075479
0.071540
0.066086
0.059118
0.060633
0.065480
0.074873
0.045181
0.027002
0.025790
0.025487
0.020943
0.049726
0.046393
0.034880
0.026699
0.023064
0.023064
0.017307
0.011550
0.007612
0.005188
0.000643
0.003673
0.004885
0.005794
0.007006
0.006097
0.005491
0.004279
0.004279
0.001552
-0.001175
-0.010567
-0.016020
-0.024504
-0.026625
-0.021171
-0.019353
-0.025716
-0.028746
-0.018141
-0.013597
-0.011779
-0.006931
-0.005719
-0.012082
-0.019353
-0.021474
-0.020868
-0.017232
-0.015717
-0.014809
-0.010567
-0.002992
0.000037
0.002764
0.000340
0.001855
0.003976
0.002764
0.004885
0.009127
0.011853
0.013368
0.010036
0.003370
0.000340
-0.002992
-0.009052
-0.010870
-0.012082
-0.013294
-0.011476
-0.007234
-0.002689
-0.003901
-0.000872
0.001552
0.003673
0.005794
0.007006
0.010036
0.011247
0.014277
0.015792
0.017004
0.021246
0.023367
0.025487
0.029426
0.030638
0.031547
0.031547
0.028820
0.026093
0.021549
0.017913
0.016095
0.016095
0.017610
0.017004
0.018216
0.018519
0.014883
0.012156
0.009733
0.008824
0.009127
0.008824
0.007006
0.009430
0.007612
0.002158
-0.009658
-0.022383
-0.019353
-0.012385
-0.004810
-0.000569
0.001249
0.000643
0.000340
0.000340
-0.001175
-0.000569
-0.004810
-0.010264
-0.019656
-0.028443
-0.025716
-0.021171
-0.023595
-0.028443
-0.032381
-0.029957
-0.021777
-0.009052
0.002461
0.004582
0.004582
0.000340
-0.002689
-0.010567
-0.016323
-0.021474
-0.021171
-0.021171
-0.026625
-0.024504
-0.022686
-0.019050
-0.018444
-0.013900
-0.012082
-0.011779
-0.008446
-0.010870
-0.012385
-0.013597
-0.017232
-0.019050
-0.024504
-0.025413
-0.025413
-0.025716
-0.030563
-0.033896
-0.034805
-0.036017
-0.045712
-0.049954
-0.044803
-0.037532
-0.039956
-0.039956
-0.037229
-0.033290
-0.027534
-0.018141
-0.001175
0.000037
-0.006022
-0.002992
0.000643
0.003673
0.003976
0.007612
0.010642
0.010945
0.019731
0.020943
0.006400
-0.002386
-0.010870
-0.004507
0.001249
0.009430
0.016398
0.019731
0.013671
0.018519
0.018216
0.013671
0.015186
0.014883
0.016398
0.015489
0.014277
0.014580
0.015186
0.013974
0.014277
0.008521
0.003067
0.002461
0.001249
-0.000569
-0.001175
0.002158
0.006703
0.006400
0.005794
0.002461
0.002461
0.005794
0.006703
0.006400
0.007915
0.009127
0.012762
0.015489
0.014277
0.015186
0.020337
0.017913
0.013974
0.010945
0.011550
0.012459
0.014277
0.017610
0.020337
0.031850
0.041545
0.050332
0.055785
0.060633
0.060633
0.057300
0.052452
0.047908
0.040636
0.031244
0.021549
0.010642
-0.002386
-0.015112
-0.019656
-0.025716
-0.030260
-0.032381
-0.035411
-0.030866
-0.025110
-0.021171
-0.015112
-0.009961
-0.009052
-0.005113
-0.004810
-0.006325
-0.005416
-0.011779
-0.026928
-0.028443
-0.031775
-0.029351
-0.022989
-0.021777
-0.019050
-0.015112
-0.013294
-0.016020
-0.025110
-0.033290
-0.026625
-0.018747
-0.013294
-0.007234
-0.001175
-0.002689
-0.001175
0.003673
0.012459
0.013065
0.015792
0.015186
0.014277
0.016095
0.017307
0.020640
0.021246
0.021549
0.018822
0.015792
0.017610
0.015489
0.015186
0.012156
0.008824
0.001249
-0.004810
-0.011779
-0.028443
-0.029049
-0.016929
-0.000872
0.007915
0.010036
0.008218
0.006703
0.005491
0.004885
0.003673
0.003976
-0.000569
-0.000266
-0.006325
-0.010264
-0.011173
-0.008446
-0.007840
-0.005113
-0.004204
-0.002689
0.000037
0.002158
0.001552
-0.002084
-0.003295
-0.004204
-0.006931
-0.007537
-0.008749
-0.010567
-0.011476
-0.010264
-0.008446
-0.006022
-0.006325
-0.007234
-0.006931
-0.005416
-0.003901
-0.003598
-0.002992
-0.002689
-0.002084
-0.001175
0.000037
0.001855
0.000037
-0.001478
-0.006022
-0.004507
-0.002689
-0.006022
-0.016626
-0.034199
-0.050863
-0.057528
-0.056922
-0.047530
-0.038138
-0.028746
-0.018747
-0.011476
-0.006628
-0.000569
0.006097
0.000340
-0.000569
0.000037
0.002461
0.002764
0.003673
0.003976
0.003976
0.006400
0.012762
0.013671
0.011247
0.011247
0.007612
0.000037
-0.005719
-0.008143
0.002158
0.011550
0.020337
0.026699
0.025487
0.018216
0.005188
-0.003598
-0.004204
-0.005416
-0.013597
-0.017535
-0.005113
-0.008749
-0.009961
0.008521
0.032153
0.036092
0.044575
0.075782
0.074570
0.068510
0.042151
0.016095
0.008824
0.013065
0.013368
0.003976
-0.011173
-0.029351
-0.029654
-0.001478
0.021549
0.057300
0.088810
0.096990
0.090325
0.067904
0.052755
0.042454
0.033062
0.019428
0.007006
0.000037
-0.008143
-0.012385
-0.034199
-0.059346
-0.073586
-0.082978
-0.083584
-0.069344
-0.042682
-0.020565
-0.005719
0.000340
0.000340
0.000643
0.001855
-0.004810
-0.008446
-0.013900
-0.017232
-0.016020
-0.017838
-0.019656
-0.017535
-0.014809
-0.009355
-0.004204
-0.000569
0.001552
0.004582
0.010036
0.004279
-0.001478
-0.004204
0.010945
0.028214
0.016095
0.008824
0.003370
0.006400
0.003370
0.003673
0.006400
0.007915
0.005188
0.002461
0.006703
0.007006
0.006097
0.005491
0.004279
0.000643
-0.005719
-0.006325
-0.004204
-0.004507
-0.001781
-0.000569
0.000037
0.001855
-0.000872
-0.001781
-0.009961
-0.019656
-0.029049
-0.032078
-0.026322
-0.017838
-0.010870
-0.017535
-0.022080
-0.036926
-0.033896
-0.026928
-0.028140
-0.025413
-0.020262
-0.017232
-0.016323
-0.007840
-0.007234
0.000643
0.033062
0.070025
0.046090
0.046090
0.012762
0.012156
0.013065
0.010642
0.010036
0.014277
0.020034
0.012762
0.005491
-0.009052
-0.018141
-0.015415
-0.017535
-0.013900
-0.011476
-0.009961
-0.005719
-0.008143
-0.011476
-0.008446
-0.012385
-0.009658
-0.003598
0.006703
0.014883
0.021852
0.027305
0.016398
0.015792
0.013065
0.013368
0.020640
0.017913
0.018216
0.023670
0.023367
0.022155
0.010036
-0.006931
-0.021474
-0.034199
-0.034502
-0.027534
-0.022686
-0.018747
-0.014506
-0.011779
-0.008446
-0.006325
-0.001781
0.000037
0.000037
-0.000266
0.001855
0.005491
0.009127
0.004279
-0.002992
-0.012688
-0.023292
-0.030563
-0.032987
-0.035714
-0.036926
-0.036320
-0.035411
-0.040562
-0.042682
-0.044500
-0.044803
-0.048136
-0.050863
-0.051166
-0.049348
-0.045409
-0.038744
-0.035714
-0.031472
-0.027231
-0.026928
-0.026019
-0.023898
-0.023595
-0.022989
-0.022080
-0.021474
-0.020262
-0.019959
-0.019959
-0.020868
-0.022989
-0.022686
-0.024201
-0.026322
-0.029049
-0.031775
-0.032987
-0.034502
-0.039350
-0.039653
-0.033896
-0.034805
-0.032684
-0.027837
-0.025110
-0.025413
-0.025413
-0.022383
-0.016626
-0.018747
-0.020262
-0.014506
-0.016323
-0.017838
-0.013900
-0.008749
0.012156
0.031244
0.044878
0.053058
0.058815
0.062451
0.067298
0.072146
0.074873
0.076388
0.077902
0.079114
0.069722
0.047908
0.028517
0.007915
-0.010264
-0.008749
0.000037
0.006097
0.012762
0.017610
0.024276
0.020337
0.017913
0.020034
0.022155
0.022761
0.021549
0.021246
0.020337
0.021549
0.022155
0.021852
0.023064
0.022761
0.023670
0.020943
0.020943
0.022155
0.030941
0.033971
0.030638
0.030638
0.032456
0.028214
0.030335
0.033365
0.035183
0.033365
0.029426
0.028517
0.027305
0.025790
0.024578
0.023367
0.021852
0.019731
0.018216
0.016095
0.014277
0.011853
0.013368
0.013368
0.012459
0.011853
0.010642
0.008824
0.006097
-0.011173
-0.024201
-0.020868
-0.007234
0.011550
0.024276
0.024276
0.022155
0.017610
0.017913
0.018216
0.020640
0.021549
0.019125
0.016095
0.013368
0.013974
0.013065
0.010339
0.010339
0.005491
0.005188
0.001855
-0.000872
-0.004204
-0.009961
-0.019656
-0.036320
-0.056619
-0.067224
-0.059043
-0.046318
-0.035714
-0.029351
-0.026322
-0.023898
-0.005416
0.017307
0.037304
0.052755
0.046999
0.059724
0.058512
0.056088
0.053058
0.046393
0.037304
0.029426
0.024276
0.018519
0.013974
0.010339
0.007006
0.004885
-0.001175
-0.003598
-0.004810
-0.005719
-0.005719
-0.002992
0.000946
0.002158
-0.003295
-0.003295
-0.006628
-0.007234
-0.008143
-0.008446
-0.007537
-0.006022
-0.005113
-0.006022
-0.005719
-0.003598
-0.000872
0.001249
0.001855
0.001855
0.000037
0.001552
0.007915
0.011247
0.011550
0.009733
0.010945
0.011550
0.011550
0.013368
0.016398
0.023367
0.035486
0.052755
0.073661
0.062451
0.070025
0.055785
0.046090
0.037304
0.031244
0.018822
0.007612
0.003067
0.001249
0.005794
0.006400
0.010036
0.012762
0.010339
0.008218
0.004885
-0.002386
-0.005719
-0.016323
-0.025716
-0.022080
-0.019050
-0.018141
-0.019050
-0.020868
-0.025110
-0.026019
-0.024807
-0.022383
-0.019050
-0.015717
-0.012991
-0.012385
-0.009961
-0.005719
0.000340
0.002158
-0.000569
-0.006325
-0.009658
-0.007537
-0.006931
-0.006628
-0.007840
-0.012688
-0.017232
-0.023898
-0.024807
-0.021777
-0.018747
-0.018141
-0.021474
-0.026019
-0.022989
-0.021171
-0.018141
-0.015717
-0.007537
0.003067
0.004885
0.003370
0.001249
-0.001478
-0.002689
-0.016323
-0.021171
-0.016929
-0.011779
-0.007537
-0.011779
-0.013900
-0.005416
-0.021171
-0.012688
0.002764
0.014277
0.011247
-0.003901
-0.013597
-0.004204
0.009127
0.015489
0.021246
0.019125
0.014277
0.013368
0.010339
0.006703
0.006097
0.003673
0.001855
0.001249
0.002158
0.003673
0.002764
0.003370
0.001552
0.003067
0.004582
0.003976
0.004582
0.002461
0.001855
0.001249
0.000037
0.000037
0.001855
0.002158
0.005188
0.004582
0.005794
0.005794
0.005188
0.006097
0.006703
0.007309
0.007915
0.009430
0.011247
0.011853
0.010036
0.009127
0.007612
0.003673
-0.000266
-0.001478
-0.004507
-0.007537
-0.003295
-0.001175
-0.002992
-0.002386
-0.001478
-0.001781
-0.000872
-0.000872
0.000037
0.000340
0.000037
0.000340
-0.000266
0.000946
0.000643
0.002158
-0.001175
-0.004810
-0.005416
-0.002689
0.000037
0.000037
0.001855
0.000037
0.000037
-0.003295
-0.003295
-0.007537
-0.010567
-0.011476
-0.012991
-0.013597
-0.011476
-0.009052
-0.008143
-0.005719
-0.014506
-0.022686
-0.024504
-0.019656
-0.018141
-0.014506
-0.006628
-0.003901
-0.002084
0.000037
-0.000569
-0.002084
-0.001175
0.001855
-0.000266
0.000340
0.000037
-0.000266
-0.000569
-0.001478
-0.002689
-0.004204
-0.003598
-0.001781
-0.002689
-0.003295
-0.000266
-0.006931
-0.002992
-0.003598
-0.002084
0.000340
-0.000266
0.001249
0.000340
0.000037
0.000037
0.000037
0.001552
-0.000872
0.003370
0.003370
0.003067
0.003370
-0.000266
-0.000569
0.000643
0.002461
-0.004810
-0.006931
-0.005416
-0.010567
-0.009355
-0.011779
-0.010870
-0.009961
-0.006325
-0.002992
-0.002689
-0.002689
-0.001478
-0.001781
-0.003598
0.000037
0.000037
0.000037
-0.002689
-0.000569
-0.001175
-0.002992
-0.003295
-0.002084
-0.004810
-0.007840
-0.018747
-0.025716
-0.024201
-0.009355
-0.010264
-0.007234
-0.002084
-0.001781
-0.002084
0.000340
0.001249
0.003067
0.005188
0.006703
0.001855
0.005188
0.004279
0.002158
0.000946
0.002764
0.001552
0.000037
0.005188
-0.001175
-0.001478
-0.001175
-0.002084
-0.006022
-0.001781
-0.003598
-0.007234
-0.004507
-0.004810
-0.007234
-0.009052
-0.006628
-0.007234
-0.006931
-0.005719
-0.004507
-0.005719
-0.004810
-0.002084
-0.002084
-0.001781
-0.002084
-0.001781
-0.002386
-0.001781
-0.001781
-0.000872
0.000037
0.000643
0.000037
-0.000266
0.001552
0.000946
0.000340
0.000037
-0.000872
-0.000569
0.000340
-0.003295
-0.003901
-0.005416
-0.005719
-0.006325
-0.004810
-0.003901
-0.004204
-0.001478
0.001552
-0.001175
-0.007537
-0.018141
-0.025716
-0.020868
-0.015717
-0.012991
-0.011476
-0.009658
-0.011779
-0.013597
-0.013294
-0.012385
-0.010567
-0.011779
-0.011779
-0.010870
-0.011476
-0.010264
-0.009658
-0.004810
-0.002689
-0.003295
-0.002084
-0.000872
0.000037
-0.000569
0.001552
0.000037
0.000037
0.000643
0.001552
0.002764
0.004279
0.002461
0.001855
0.001249
0.002461
0.001855
0.001855
0.002461
0.003976
0.005794
0.004279
0.006097
0.008521
0.009127
0.009430
0.009430
0.010642
0.010036
0.010642
0.010945
0.011550
0.011247
0.010339
0.008824
0.008521
0.007915
0.006400
0.004582
0.003067
0.003067
0.003067
0.003673
0.002764
0.000643
-0.000872
0.000037
0.000037
0.002158
0.003067
0.004885
0.004582
0.005794
0.007915
0.009430
0.012156
0.014277
0.015489
0.013974
0.013671
0.011247
0.009430
0.008521
0.005491
0.003976
0.003067
0.001249
0.000643
0.000340
0.000340
0.001855
0.002764
0.002461
0.005188
0.006097
0.005794
0.004582
0.003673
0.003370
0.003067
0.001249
0.000643
0.000037
-0.000569
-0.002084
-0.003598
-0.005416
-0.006325
-0.006931
-0.006628
-0.006931
-0.006022
-0.006325
-0.006022
-0.004810
-0.004204
-0.002689
-0.002386
-0.002386
-0.002084
-0.001175
0.000037
-0.000569
-0.001175
-0.002992
-0.005113
-0.006931
-0.006931
-0.007234
-0.006022
-0.005416
-0.006325
-0.006325
-0.006325
-0.005113
-0.004204
-0.004810
-0.004507
-0.005416
-0.004810
-0.005719
-0.006931
-0.005113
-0.007234
-0.009658
-0.016929
-0.019050
-0.008749
0.001855
0.009127
0.012459
0.013671
0.009733
0.004885
0.000037
-0.003598
-0.003901
-0.002992
0.000037
0.002461
0.006097
0.013671
0.016398
0.023064
0.030032
0.034274
0.035789
0.035789
0.033971
0.032153
0.028517
0.023670
0.020337
0.016398
0.011550
0.009430
0.006703
0.005794
0.004582
0.003067
0.000037
-0.002386
-0.004204
-0.003598
-0.004204
-0.002992
-0.003295
-0.006022
-0.009052
-0.009961
-0.009658
-0.011476
-0.012991
-0.014809
-0.015112
-0.015415
-0.017232
-0.015112
-0.013294
-0.012385
-0.010264
-0.011173
-0.012688
-0.012082
-0.010264
-0.011476
-0.009052
-0.003901
-0.002689
-0.006022
-0.005719
-0.005719
-0.005719
-0.004204
-0.004507
-0.006022
-0.005719
-0.009658
-0.018141
-0.027231
-0.035411
-0.027837
-0.015717
-0.010567
-0.013294
-0.005416
-0.004204
-0.008143
-0.008446
-0.006931
-0.003901
-0.006022
-0.002992
-0.000569
-0.003598
0.000643
-0.009658
-0.008446
-0.003901
-0.005113
-0.006628
-0.006628
-0.001781
0.000037
0.003673
-0.002689
0.000340
-0.000569
-0.002689
-0.006325
-0.002084
0.004885
0.002764
0.007309
0.012762
0.017610
0.012459
0.020337
0.019125
0.017610
0.015489
0.016398
0.014883
0.014883
0.019125
0.025184
0.025790
0.028214
0.025487
0.022458
0.020337
0.013974
0.008521
-0.004810
-0.006022
-0.004810
-0.006022
-0.010264
-0.013294
-0.012385
-0.008446
-0.002386
0.000643
0.003370
0.001552
-0.000266
0.002764
-0.000569
0.003067
0.002764
0.002764
0.004279
0.005188
0.004885
0.001249
0.001552
0.004582
0.000037
-0.000569
-0.002386
-0.004810
-0.003598
-0.004204
-0.003295
-0.001478
-0.002084
-0.002992
-0.007234
-0.001175
-0.010870
-0.016323
-0.021171
-0.019050
-0.019353
-0.019656
-0.017232
-0.012082
-0.008749
-0.019050
-0.025413
-0.024807
-0.019656
-0.012991
-0.003901
0.001855
0.001855
0.005794
0.002461
0.000340
-0.001175
-0.002689
-0.001478
-0.006022
-0.005719
-0.003901
0.001249
0.005491
0.013974
0.019731
0.016398
0.020640
0.023973
0.020640
0.028820
0.029729
0.025790
0.018822
0.013974
0.007915
0.003067
-0.001175
-0.004204
-0.002386
-0.002386
-0.001478
-0.000872
-0.000872
0.001552
-0.002386
-0.004507
-0.006325
-0.005416
-0.009658
-0.004204
-0.005416
-0.004204
-0.003901
-0.003295
-0.004204
0.000037
-0.002084
-0.009052
-0.009658
-0.005719
-0.004810
-0.004810
-0.008749
-0.005113
-0.003598
-0.007840
-0.004810
-0.009052
-0.006022
-0.002386
0.000643
-0.000266
0.002764
0.004582
0.002764
0.010036
0.007915
0.001552
-0.001781
-0.001175
0.000340
0.001552
-0.007840
-0.002084
-0.003295
0.000037
-0.001478
-0.003598
-0.010264
-0.005416
-0.007234
-0.010870
-0.008749
-0.006022
-0.006931
-0.005416
-0.005719
-0.005416
-0.005719
-0.007234
-0.007840
-0.007537
-0.007537
-0.002386
-0.007234
-0.002689
0.004885
0.005491
0.012459
0.013065
0.011550
0.006097
0.002461
0.003976
0.003067
0.002158
-0.004810
-0.013900
-0.010567
-0.002386
0.003976
0.013065
0.018519
0.029123
0.034274
0.040939
0.035486
0.033062
0.027002
0.023670
0.023367
0.020943
0.023973
0.029426
0.023367
0.018519
0.030335
0.026093
0.014277
0.020640
0.018519
0.013671
0.016398
0.017913
0.012156
0.031850
0.022458
0.031547
0.032153
0.031244
0.027608
0.024276
0.014883
0.013065
0.018519
0.019428
0.010642
0.008521
0.004582
0.013671
0.006097
0.016701
0.011853
0.010036
0.010642
0.011853
0.008521
0.007309
0.010945
0.009430
0.011247
0.012459
0.014277
0.010339
0.011247
0.012156
0.009430
-0.005113
-0.012991
-0.011173
-0.015112
-0.016020
-0.019353
-0.018444
-0.024201
-0.023292
-0.017838
-0.020868
-0.017838
-0.014203
-0.012385
-0.013597
-0.014809
-0.015415
-0.020262
-0.026322
-0.025716
-0.028746
-0.029957
-0.037229
-0.048136
-0.042380
-0.044500
-0.031775
-0.022080
-0.015415
-0.019353
-0.003295
-0.002689
-0.011476
0.001855
-0.000266
-0.000266
0.010945
-0.002386
-0.004810
-0.005113
0.000643
-0.000569
-0.000872
0.005794
-0.002992
0.001249
0.006400
0.004582
0.000340
0.005794
0.011247
0.006400
0.005491
0.006400
0.000946
-0.007234
-0.009658
-0.010264
-0.017232
-0.018141
-0.013294
-0.006628
-0.011476
-0.006325
-0.002084
-0.001781
0.000643
0.002158
0.002764
0.004885
0.005794
0.011247
-0.000266
0.006703
-0.000569
0.004279
-0.000569
0.001249
0.002158
0.001249
0.000340
0.000946
0.005794
0.003370
-0.002084
0.005188
-0.004810
0.002461
-0.007840
0.001855
-0.000872
0.000340
-0.010264
0.000643
0.001855
-0.003901
-0.004810
-0.004810
0.000037
0.000946
-0.001175
-0.000569
0.005491
0.009430
0.013974
0.000946
-0.002386
-0.012688
-0.017535
-0.019656
-0.020868
-0.015112
-0.010567
-0.016323
-0.021777
-0.024807
-0.023595
-0.018747
-0.013597
-0.015112
-0.010567
-0.010567
-0.007537
-0.002992
-0.009355
-0.007234
-0.012688
-0.013597
-0.010870
-0.011173
-0.013597
-0.013597
-0.015415
-0.017535
-0.017535
-0.017838
-0.016323
-0.012991
-0.015717
-0.012991
-0.014203
-0.012991
-0.010870
-0.009658
-0.008143
-0.008749
-0.006931
-0.004507
-0.000569
0.002764
0.008824
0.009127
0.013671
0.020640
0.028517
0.030941
0.033668
0.038212
0.040333
0.039424
0.037304
0.035486
0.031850
0.031244
0.026396
0.021852
0.020337
0.019428
0.016095
0.013065
0.007915
0.005188
0.004885
0.001855
-0.000266
-0.002689
-0.007234
-0.010567
-0.013597
-0.015112
-0.014809
-0.014203
-0.010567
-0.007234
-0.003901
-0.000569
-0.000569
-0.000569
-0.000569
-0.002084
-0.001781
-0.002084
0.000037
-0.001781
-0.002084
-0.000266
0.000037
-0.002689
-0.012385
-0.025413
-0.031169
-0.024504
-0.017838
-0.012385
-0.009355
-0.007537
-0.008446
-0.009052
-0.006022
-0.004204
-0.001781
-0.001175
-0.000569
0.000037
-0.000266
-0.000569
-0.000266
-0.001175
-0.002992
-0.003295
-0.005416
-0.007537
-0.009052
-0.011476
-0.012082
-0.012688
-0.011476
-0.009961
-0.010567
-0.009658
-0.010567
-0.010567
-0.011476
-0.011173
-0.011173
-0.012688
-0.015112
-0.016929
-0.014506
-0.012082
-0.008446
-0.002992
0.002461
0.008824
0.017307
0.024276
0.027608
0.030032
0.029729
0.029123
0.027608
0.025487
0.020337
0.015186
0.009430
0.002461
0.000037
-0.001478
0.000037
0.004279
0.011853
0.015489
0.015792
0.014580
0.012156
0.005794
0.000037
-0.002386
-0.003598
-0.005113
-0.004507
-0.004507
-0.003901
-0.003598
-0.002689
-0.001781
-0.000569
0.000037
-0.000569
-0.000872
-0.000872
0.000037
0.001249
-0.001781
-0.009052
-0.018747
-0.023898
-0.016929
-0.011779
-0.006022
-0.001175
0.000946
0.001855
0.001855
0.001249
0.001249
0.001552
0.000946
0.000946
0.001552
0.001552
0.000946
0.000340
0.001855
0.001855
0.000946
0.000037
-0.000266
-0.000266
0.000037
-0.000569
-0.001175
-0.001781
-0.001781
-0.002992
-0.003598
-0.002689
-0.001175
-0.000266
-0.000266
0.000037
0.002158
0.004582
0.006097
0.008521
0.009733
0.011247
0.013065
0.015186
0.017913
0.018822
0.022458
0.024578
0.026396
0.027002
0.025487
0.018822
0.012156
0.006097
0.003067
0.001855
0.000037
-0.001781
-0.003901
-0.006628
-0.009961
-0.013294
-0.013597
-0.010567
-0.005416
0.000037
0.001855
0.000340
-0.000569
-0.000266
0.000037
0.000340
0.000037
0.001552
0.001552
0.001552
0.001855
0.001249
0.000340
-0.000266
-0.001478
0.000037
-0.003295
-0.009355
-0.021474
-0.030866
-0.026322
-0.019050
-0.011173
-0.003901
0.000643
0.002461
0.004279
0.004582
0.005491
0.006400
0.006703
0.007006
0.006703
0.005188
0.003976
0.001855
0.000037
0.000037
-0.000569
-0.002992
-0.004204
-0.005113
-0.005719
-0.006628
-0.007234
-0.009658
-0.011173
-0.010870
-0.012991
-0.014809
-0.015415
-0.016323
-0.015717
-0.013900
-0.010264
-0.007234
-0.003901
-0.002689
-0.000266
0.000037
0.000340
0.001249
0.000643
0.000340
0.000037
0.000037
-0.000266
0.000946
0.001552
0.003673
0.006097
0.007309
0.010945
0.013368
0.014883
0.016701
0.017004
0.017913
0.017610
0.016095
0.014580
0.011247
0.008218
0.006097
0.003673
0.003976
0.004582
0.003673
0.002461
0.003370
0.003067
0.005188
0.007309
0.005794
0.004885
0.003673
0.003976
0.002461
0.001855
0.000037
0.000037
0.000037
-0.000872
-0.000569
-0.001175
0.000340
0.000037
0.000037
-0.000266
-0.000569
-0.001175
-0.001478
0.000037
0.000340
-0.001478
-0.011173
-0.020868
-0.021777
-0.014203
-0.008446
-0.002992
0.000643
0.002764
0.002764
0.001855
0.001552
0.002764
0.001855
0.001855
0.002158
0.002461
0.001249
0.000643
0.000946
0.000643
0.000037
0.000037
0.000037
0.000643
0.000037
-0.000266
0.000037
0.000340
0.000643
0.000340
-0.000569
-0.001478
-0.001781
-0.002084
-0.002386
-0.003598
-0.002689
-0.001781
-0.001781
-0.002084
-0.001781
-0.001478
-0.001478
-0.002084
-0.000569
-0.001175
-0.001478
-0.002084
-0.002689
-0.002992
-0.002386
-0.002992
-0.002689
-0.000872
0.000037
0.000340
0.000643
0.000340
-0.000266
-0.000266
-0.000872
0.000037
0.001249
0.002764
0.004279
0.005491
0.007612
0.008521
0.008824
0.008824
0.008824
0.008521
0.007309
0.007006
0.006400
0.006097
0.005188
0.005491
0.007006
0.008521
0.008824
0.008521
0.008218
0.006097
0.006097
0.004885
0.002764
0.002461
0.000643
-0.000569
-0.000872
-0.002084
-0.001478
-0.001175
0.000037
0.000340
0.000037
-0.006022
-0.016020
-0.022080
-0.014506
-0.007234
0.000340
0.005794
0.010036
0.010036
0.010036
0.009127
0.008218
0.007006
0.005188
0.003370
0.002158
0.001552
0.000037
-0.002084
-0.002084
-0.002386
-0.002992
-0.002386
-0.001781
-0.001478
-0.001175
-0.001175
0.000340
0.000946
0.000946
0.001552
0.001552
0.000946
0.001249
0.000037
0.000037
-0.000872
-0.000872
-0.000569
-0.001781
-0.002386
-0.003295
-0.003295
-0.003901
-0.003901
-0.002689
-0.004204
-0.004507
-0.003901
-0.003295
-0.002386
-0.003598
-0.003598
-0.003598
-0.002992
-0.002992
-0.003598
-0.002386
-0.002084
-0.002689
-0.002386
-0.002689
-0.002084
-0.002084
-0.001478
-0.001175
-0.000569
0.000340
0.000340
0.000037
0.000340
0.000643
0.001552
0.001855
0.002158
0.001552
0.001552
0.001249
0.001552
0.000340
0.000946
0.000037
0.001249
0.000946
0.001855
0.001855
0.002158
0.003067
0.002764
0.003067
0.004279
0.005188
0.002158
-0.001781
-0.013900
-0.022686
-0.018444
-0.012082
-0.006931
-0.001781
0.000946
0.001855
0.003067
0.002764
0.002764
0.003067
0.001249
0.003067
0.003370
0.002461
0.001552
0.001855
0.000946
0.000946
0.000946
0.001552
0.000643
0.000340
0.001855
0.002158
0.002461
0.002461
0.001855
0.001552
0.001249
0.000946
0.000037
-0.001175
-0.000266
-0.001175
-0.000872
-0.000872
-0.001781
-0.000872
-0.000872
-0.001175
0.000037
-0.000569
0.000037
-0.000266
0.000037
0.000037
0.000643
0.000643
0.000643
0.001249
0.000037
0.000037
0.000340
0.000643
0.000037
0.000037
0.000946
0.000946
0.000643
0.000037
0.000340
-0.000266
0.000037
0.000340
-0.000266
0.000037
0.000037
0.000340
0.000340
0.000037
0.000946
0.000643
0.001855
0.001855
0.002461
0.002158
0.002158
0.001552
0.002461
0.003673
0.003673
0.000037
-0.007537
-0.017232
-0.020262
-0.013900
-0.009052
-0.003295
0.000340
0.001855
0.003370
0.003370
0.003673
0.003370
0.003673
0.003976
0.005188
0.004582
0.003976
0.004885
0.002764
0.003673
0.004582
0.004279
0.003673
0.003067
0.003067
0.003067
0.002461
0.002461
0.002461
0.002764
0.002158
0.001249
0.001249
0.000946
0.000340
0.000037
0.000037
0.000340
0.000340
0.000037
0.000340
0.000340
0.000946
0.000340
0.000946
0.000340
0.000340
0.000340
0.000643
0.000946
0.000037
0.000037
0.000037
0.000037
0.000037
0.000340
0.000037
0.000037
0.000037
0.000037
0.000037
0.000037
0.000037
0.000037
0.000037
0.000037
0.000037
0.000037
0.000643
0.000037
0.000037
0.000037
0.000037
0.000340
0.000946
0.000340
0.001855
0.000946
0.000643
0.001552
0.000643
0.001249
0.001552
0.000946
0.001552
0.000643
0.001249
0.001249
0.001552
0.000946
0.000643
0.001249
0.000340
0.000643
0.000946
0.000340
0.000643
0.000340
0.000037
0.000340
0.001552
0.000643
0.001249
0.001855
0.001249
0.001249
0.001552
0.000037
0.000643
0.000643
0.001249
0.000037
0.000643
0.002461
0.002764
-0.000266
-0.007234
-0.017535
-0.025110
-0.019959
-0.013294
-0.006931
-0.002992
-0.000266
0.000643
0.000946
0.001552
0.000643
0.001552
0.001855
0.001249
0.000946
0.001249
0.000946
0.000643
0.000643
0.000643
0.000946
0.000340
0.000037
0.000037
0.000037
0.000037
0.000037
0.000037
-0.000266
-0.000569
-0.000569
0.000037
-0.001175
-0.000872
-0.001175
0.000037
-0.002084
-0.002992
-0.002992
-0.002386
-0.002084
-0.001781
-0.002689
-0.002386
-0.002084
-0.002386
-0.002689
-0.002386
-0.002386
-0.002386
-0.002084
-0.001175
0.000037
0.000037
0.000037
0.000037
0.000037
0.000643
0.000037
0.000037
0.000037
0.000037
0.000037
0.000037
0.000037
0.000037
0.000037
0.000340
0.000340
0.001249
0.000946
0.001552
0.000037
0.001249
0.001249
0.001552
0.001855
0.001855
0.001552
0.001249
0.002461
0.000643
0.000946
0.000643
0.000946
0.001552
0.001552
0.002158
0.002461
0.001855
0.001855
0.002158
0.003067
0.003067
0.003067
0.005188
0.003976
0.000037
-0.008143
-0.019050
-0.019050
-0.013900
-0.008143
-0.002992
0.000340
0.002461
0.002764
0.003673
0.003673
0.004279
0.004279
0.003673
0.003976
0.004885
0.004885
0.003976
0.003976
0.004582
0.003370
0.003370
0.003067
0.003067
0.003370
0.002764
0.002764
0.002461
0.002461
0.002764
0.001552
0.001552
0.001552
0.001249
0.000946
0.002158
0.000946
0.000643
0.001249
0.000340
0.000340
0.001249
0.001552
0.000946
0.000037
0.000340
0.000340
0.000643
0.000340
0.000340
0.000340
-0.000266
0.000037
0.000037
0.000037
0.000643
0.000037
0.000643
0.000643
0.000340
0.000643
0.000340
0.000037
0.000037
0.000037
0.000037
-0.000266
0.000037
-0.000266
0.000946
0.000643
-0.002084
-0.012688
-0.024807
-0.025413
-0.015717
-0.007840
-0.003901
0.000037
0.000643
0.001249
0.001855
0.000946
0.001552
0.002158
0.001552
0.001552
0.001249
0.000946
0.000946
0.000946
0.001552
0.000946
0.000037
0.000946
0.000340
0.000340
0.000643
0.000340
0.000643
0.000037
0.000037
0.000037
0.000037
0.000037
0.000037
0.000037
-0.000872
-0.000872
-0.001175
-0.000872
-0.001175
-0.001478
-0.001478
-0.000872
-0.001175
-0.001478
-0.000872
-0.000569
-0.000569
-0.000266
0.000037
-0.000569
0.000037
0.000340
0.000340
-0.000266
-0.000266
-0.000266
0.000037
0.000037
0.000037
0.000643
-0.000266
0.000037
0.000037
0.000340
0.000340
0.000946
0.000946
0.000643
0.000643
0.000946
0.000643
0.000340
0.000643
0.000037
0.000643
0.000037
0.000037
0.000037
0.000037
0.000340
0.000340
0.000037
0.000037
0.000643
0.000946
0.000946
0.000946
0.003370
0.001855
-0.000872
-0.011173
-0.022383
-0.020565
-0.012385
-0.006628
-0.001781
0.001249
0.002461
0.002461
0.002461
0.002158
0.002764
0.001552
0.001552
0.001552
0.002158
0.001249
0.000340
0.000037
-0.000266
-0.000872
-0.000569
-0.001781
-0.001781
-0.000569
-0.001781
-0.002386
-0.002084
-0.001781
-0.001478
-0.000872
-0.000569
0.000037
-0.000266
-0.000569
-0.000872
-0.000872
0.000037
0.000037
0.000340
-0.000266
0.000037
0.000037
0.000037
0.000340
0.001552
0.002158
0.002158
0.002764
0.002461
0.002764
0.002764
0.002764
0.003673
0.003370
0.003067
0.002764
0.002461
0.003673
0.002461
0.003067
0.002764
0.001855
0.002461
0.002764
0.002461
0.002764
0.002461
0.003067
0.002764
0.003067
0.003370
0.003067
0.003976
0.002461
0.002764
0.002764
0.003976
0.004885
0.001855
-0.004507
-0.016020
-0.020262
-0.013900
-0.008749
-0.003598
0.000037
0.003370
0.003067
0.003673
0.004279
0.003673
0.004582
0.003067
0.003673
0.003370
0.002764
0.003067
0.002461
0.001855
0.001249
0.000340
0.000037
0.000340
0.000037
-0.000266
0.000037
0.000037
-0.000266
-0.000266
-0.000569
-0.001175
-0.001175
-0.002084
-0.001781
-0.002084
-0.001781
-0.002689
-0.001478
-0.001478
-0.000872
-0.001175
-0.000569
-0.000872
-0.000872
-0.000872
-0.000266
0.000037
0.000340
0.000643
0.000340
0.000340
0.000946
0.000946
0.000946
0.000946
0.001249
0.001249
0.001249
0.000643
0.000643
0.000643
0.000643
0.000946
0.000037
0.000037
0.000340
0.000340
0.000643
0.000037
0.000037
0.001249
0.001249
0.002158
0.001249
0.001249
0.001249
0.000946
0.001249
0.001249
0.001249
0.001249
0.001249
0.002158
0.001249
0.000643
0.000340
0.000643
0.000340
0.002764
0.002461
0.000037
-0.006931
-0.017838
-0.023595
-0.016020
-0.009355
-0.004810
-0.000266
0.000643
0.002158
0.002764
0.003370
0.002764
0.002461
0.002461
0.002764
0.002158
0.001855
0.002158
0.000643
0.000643
0.001552
0.001249
0.001552
0.001552
0.001552
0.001855
0.000643
0.000946
0.000643
0.000037
0.000946
0.000037
0.000643
0.000340
0.000340
0.000340
0.000037
0.000037
-0.000266
-0.000872
0.000037
0.000037
0.000037
0.000037
-0.000266
0.000037
0.000037
0.000037
0.000643
0.000037
0.000946
0.000340
0.000340
0.000340
0.001249
0.001855
0.000946
0.001249
0.001249
0.000946
0.000946
0.000946
0.000946
0.000340
0.000946
0.001552
0.001855
0.000946
0.000037
0.000946
0.001552
0.001855
0.002461
0.000946
0.002158
0.001249
0.002461
0.001552
0.001855
0.002461
0.002158
0.001855
0.003067
0.002158
0.003067
0.002764
0.002158
0.001855
0.001552
0.001249
0.000643
0.001552
0.001552
0.002158
0.001855
0.001552
0.001552
0.000946
0.001552
0.003370
0.001249
-0.003295
-0.014809
-0.028140
-0.025413
-0.017535
-0.009355
-0.004204
0.000037
0.000340
0.001855
0.001552
0.000946
0.001249
0.001249
0.002158
0.001855
0.000946
0.001552
0.001855
0.001552
0.001249
0.001249
0.000643
0.000643
0.000340
0.000340
-0.000569
0.000037
0.000037
-0.000569
0.000037
-0.000569
-0.001478
-0.001478
-0.000569
-0.000872
-0.001175
-0.002084
-0.001781
-0.002386
-0.000872
-0.000569
-0.001175
-0.001478
-0.002084
-0.002386
-0.002084
-0.002386
-0.002386
-0.001478
-0.001781
-0.001781
-0.001781
-0.000872
-0.001175
-0.000266
0.000037
0.000037
-0.000266
0.000037
-0.000872
0.000037
-0.000569
0.000037
-0.000266
-0.000569
0.000037
0.000037
0.000643
0.000946
0.001249
0.001249
0.000340
0.001249
0.001855
0.001552
0.001552
0.002461
0.003067
0.001855
0.003370
0.002461
0.003067
0.002461
0.002461
0.003067
0.003370
0.002158
0.002461
0.002461
0.003673
0.003976
0.001855
-0.006022
-0.016929
-0.021474
-0.015415
-0.010870
-0.006628
-0.002084
0.000037
0.000340
0.000037
0.000037
0.000340
0.001552
0.000340
0.000340
0.000037
0.000643
0.000037
0.000037
0.000340
0.000037
0.000037
-0.000569
-0.000266
0.000037
0.000037
0.000037
-0.000266
-0.000872
-0.001175
-0.001781
-0.002386
-0.002386
-0.002084
-0.001175
-0.000872
-0.000872
-0.000266
0.000037
0.000037
0.000340
0.000643
0.000340
0.000946
0.000946
0.001552
0.002158
0.001249
0.001552
0.001249
0.000946
0.001249
0.001249
0.001552
0.001552
0.001552
0.001855
0.001552
0.001855
0.001552
0.000340
0.000340
0.000946
0.001249
0.001552
0.001552
0.001552
0.001552
0.001855
0.001855
0.002764
0.002461
0.003067
0.002461
0.003067
0.003370
0.003067
0.003067
0.002158
0.001855
0.001249
0.000643
0.000946
0.000946
0.000946
0.000643
0.000037
0.000643
0.000340
0.000643
0.000643
0.000946
0.000946
0.000946
0.001249
0.001552
0.000643
0.001249
0.001249
0.001855
0.001249
0.001249
0.001552
0.001552
0.001552
0.000946
0.001249
0.000946
0.000946
0.001552
0.001552
0.000946
0.001552
0.000946
0.001249
0.001249
0.000340
0.000643
0.000946
0.000946
0.001855
0.001855
0.001855
0.001249
0.001249
0.000946
0.001249
0.001249
0.001552
0.002461
0.003067
0.000037
-0.006628
-0.018141
-0.026322
-0.019353
-0.010870
-0.004810
-0.000872
0.001855
0.001855
0.002764
0.001552
0.002158
0.002158
0.000946
0.001855
0.001249
0.000643
0.000037
0.000037
0.000037
0.000340
0.000037
0.000037
0.000037
-0.000266
0.000037
0.000037
0.000037
0.000037
0.000037
0.000037
-0.000266
-0.000569
