0.003226
0.003582
0.003266
-0.005658
0.001425
0.003365
0.003642
0.003325
0.003622
0.003642
0.005897
-0.005797
-0.010823
0.003028
0.003285
0.003068
0.003721
0.000040
0.003167
0.004275
0.003582
-0.006133
-0.004708
0.002929
0.004591
0.003661
0.003622
0.004572
0.003206
0.003187
0.004097
0.003760
-0.004788
-0.006450
-0.005361
-0.005282
0.003444
0.005343
0.004018
0.004314
0.005205
0.003661
0.005106
0.004512
0.004235
0.005482
0.004018
0.005205
0.004967
0.004453
0.005304
0.001168
-0.003185
-0.004827
-0.005361
-0.004115
-0.005262
-0.004491
-0.004214
-0.005203
-0.006093
0.004908
0.005660
0.008727
0.003325
0.009162
-0.004234
0.005244
0.004730
-0.003442
0.005086
-0.001681
-0.004253
-0.004016
-0.004135
-0.003482
-0.003284
-0.003976
-0.003600
-0.003165
-0.004095
-0.003046
-0.003086
-0.003699
-0.002947
-0.003462
-0.002690
-0.002215
0.001129
0.007975
-0.001285
-0.003185
-0.002967
-0.003224
-0.002868
-0.003145
-0.002987
-0.002829
-0.003007
-0.002789
-0.002829
-0.002967
-0.002730
-0.002314
0.003285
-0.002453
-0.002789
-0.002136
-0.002552
-0.002967
-0.002532
-0.002769
-0.002809
-0.002393
-0.002987
-0.002433
-0.002651
-0.002829
-0.002512
-0.002809
-0.002571
-0.002947
-0.002769
-0.002097
-0.002571
-0.002532
-0.002532
-0.002651
-0.002235
-0.002651
-0.002611
-0.002294
-0.002690
-0.003442
-0.002651
-0.002750
-0.002532
-0.002631
-0.006390
-0.002750
-0.002750
0.004829
-0.002750
-0.002512
-0.002829
0.006788
0.006174
-0.003462
-0.002987
0.006807
-0.000731
0.005957
0.007124
0.007263
0.006372
-0.002156
-0.003205
0.006333
0.007421
-0.000672
0.004532
-0.002908
0.001999
0.004690
0.006629
-0.003402
0.004255
0.006214
-0.004194
-0.004115
0.006234
0.007302
0.005818
-0.002789
-0.003482
-0.004135
-0.002750
-0.004550
0.004314
-0.003066
0.005442
0.006946
-0.001048
-0.002413
-0.003185
-0.003937
-0.003462
-0.003660
-0.004352
-0.003363
-0.002987
-0.002829
-0.003759
-0.004590
0.006253
-0.003996
-0.004313
-0.004075
-0.004332
0.004928
0.005620
-0.003917
0.004690
0.004295
0.005818
0.005304
0.005957
0.005383
0.005838
-0.004016
0.010923
-0.002314
-0.004530
-0.004926
-0.003304
-0.007953
0.005007
-0.003818
-0.005262
-0.003957
-0.007300
-0.004807
-0.003304
-0.005065
-0.004293
-0.004412
0.000456
0.006056
0.005126
0.005482
0.005699
0.004789
0.005521
-0.004689
-0.004887
0.005363
0.006471
0.005383
0.005244
0.010171
-0.007281
0.004512
0.005244
0.005680
0.002257
0.006075
-0.004649
0.004631
0.005699
0.004809
0.005442
0.005363
0.006768
-0.003482
-0.005084
0.005046
0.005897
0.004354
0.005699
0.005343
-0.004926
-0.005183
0.004433
0.003365
0.001900
0.004611
-0.001107
0.004334
0.005699
0.005976
0.003998
-0.003304
-0.005322
0.003226
-0.003402
0.003562
0.006432
-0.003145
-0.005579
-0.003264
-0.005638
-0.004174
-0.003996
-0.005500
-0.003442
-0.005183
-0.004511
0.001722
0.005996
0.006511
-0.004788
-0.005005
-0.003680
-0.005421
-0.003838
-0.004530
-0.005203
-0.003739
-0.005282
-0.004234
-0.004194
-0.005045
-0.003818
-0.004807
-0.004590
-0.003976
-0.005065
-0.003699
-0.004788
-0.004768
-0.004075
-0.005025
-0.004095
-0.004649
-0.004867
-0.004095
-0.005025
-0.004253
-0.004570
-0.004926
0.003562
0.004987
0.005581
-0.004471
-0.005164
0.005383
-0.004570
-0.004748
0.005086
0.005482
0.005007
-0.003680
-0.004966
0.004552
0.008569
0.004829
-0.004609
0.004928
0.009162
0.003562
0.001881
-0.004590
0.002039
-0.004431
0.005343
0.004255
0.005462
0.004671
0.004453
0.005284
-0.005421
0.004690
0.003206
-0.003185
0.004473
0.002613
0.004631
0.004512
0.004868
0.004374
0.004928
0.004690
0.004413
0.003107
0.001702
0.004473
0.004532
0.004176
0.004671
0.004255
-0.003501
-0.005579
-0.005777
-0.005183
0.004097
-0.004946
-0.007914
-0.006192
-0.004946
-0.006133
0.002909
0.004710
0.003899
-0.004985
-0.009734
0.003523
0.004849
0.003820
0.004314
-0.005302
-0.000276
-0.004036
-0.005935
0.003365
-0.004649
-0.006786
-0.005559
-0.005203
-0.006944
-0.004511
0.003167
0.004156
0.004789
0.002791
-0.004649
0.003147
0.003800
-0.004530
0.002177
-0.004293
0.002573
0.003107
0.005798
0.002098
0.005145
0.004255
-0.006964
-0.004392
-0.007498
-0.005262
-0.005361
-0.007122
0.005502
0.003266
0.004572
0.004730
0.003147
0.005323
0.003602
0.004176
-0.003600
0.002553
0.005225
0.004215
0.003642
0.005363
0.003404
0.004868
0.004690
0.003642
0.000951
0.003285
0.004769
0.006372
-0.006014
0.005323
0.004156
0.004829
0.004967
0.004275
-0.004174
-0.005539
-0.004985
-0.004214
-0.005737
-0.004194
-0.005124
-0.005045
-0.011515
0.003998
0.005897
0.005581
0.004275
0.006412
0.004532
0.005640
0.005937
0.004552
0.006530
0.004948
0.005363
-0.001523
0.001999
0.006491
0.005759
0.005086
0.006748
-0.004827
-0.003917
0.005798
0.005620
0.006649
0.005343
0.004948
-0.003521
-0.004609
-0.003304
-0.004194
-0.003838
-0.003284
-0.004332
-0.003106
-0.001424
0.006016
-0.002710
-0.004214
-0.003244
-0.003145
-0.004115
0.001980
-0.003640
-0.003383
-0.002987
-0.003778
-0.002809
-0.003284
-0.003363
-0.002769
-0.003561
-0.002848
-0.003106
-0.003264
-0.002730
-0.003205
-0.002829
-0.002769
-0.003145
-0.002552
-0.003165
-0.002888
-0.002710
-0.003185
-0.002591
-0.002987
-0.002848
-0.002750
-0.003007
-0.002552
-0.002848
-0.002967
-0.002552
-0.002967
-0.002750
-0.002591
-0.002888
-0.002374
-0.002829
-0.002651
-0.002769
-0.002928
-0.002571
-0.002670
-0.002710
-0.002690
-0.002928
-0.002670
-0.002987
-0.002928
-0.002809
-0.003027
-0.002829
-0.002829
-0.002829
-0.002750
-0.003046
-0.002848
-0.002987
-0.003027
-0.002057
-0.007637
-0.003125
0.005502
0.006313
0.006610
0.006629
0.009083
0.000555
-0.003066
0.006234
0.006887
0.005086
0.006372
0.006946
0.006135
-0.001918
0.010705
0.004492
-0.000593
-0.004095
-0.003244
-0.009517
0.005581
-0.002789
0.005403
0.006214
-0.002848
0.004671
0.012902
-0.003739
0.001247
0.006966
-0.003442
-0.004135
-0.000434
-0.006509
0.006234
0.005482
0.005680
0.005858
0.003582
-0.004016
-0.004768
-0.004669
-0.004253
0.002613
-0.003957
-0.004649
-0.004985
-0.003957
-0.005500
-0.004392
-0.010842
0.001247
0.004473
-0.004669
-0.005262
-0.002848
0.010963
0.003503
-0.005005
-0.001800
-0.001998
0.006610
0.005165
0.005126
0.003464
0.006036
0.003741
0.005462
-0.001978
0.001386
-0.002492
-0.005658
-0.006153
-0.004214
-0.006786
-0.004728
-0.005361
-0.006410
-0.004313
-0.006588
0.001564
-0.005005
-0.006806
0.003741
-0.001186
0.003681
0.004789
0.003464
0.004314
0.004176
0.003503
0.004888
0.003602
-0.005520
0.004136
0.003701
0.004928
0.003424
0.001069
-0.003145
0.001742
-0.004807
0.003147
0.004097
0.004671
0.002712
0.005046
0.003444
0.003800
0.004868
0.002929
0.003523
0.001564
0.003602
0.004967
0.003226
0.004453
0.004394
0.003562
0.005106
0.003543
0.004334
0.004552
-0.006232
0.004473
0.003879
0.004413
0.004314
0.003938
0.004631
0.003998
0.003582
-0.005164
-0.008587
0.004255
0.004492
0.004196
0.004572
0.004473
0.005878
-0.005084
-0.005777
-0.005658
-0.004372
0.001247
0.004888
0.007124
-0.005282
-0.001523
-0.004946
-0.004887
0.002593
-0.005005
0.004631
0.003958
-0.004135
-0.006153
-0.004966
-0.004926
-0.005836
-0.004115
-0.005718
-0.007300
-0.003858
-0.005816
0.004156
0.003998
0.004888
-0.004431
-0.005797
0.002276
0.000575
0.002929
0.003661
0.002632
-0.005876
-0.005599
-0.006628
-0.002809
0.002474
0.005185
0.003246
-0.004530
-0.004530
-0.005164
0.004948
-0.004214
-0.005381
-0.004689
-0.004550
-0.008013
-0.004352
0.004769
-0.004293
-0.004491
-0.006648
-0.007973
-0.004115
0.003899
-0.003858
0.004215
0.006095
-0.002334
-0.005183
0.004928
-0.003363
0.003365
-0.004234
0.003345
-0.005915
0.003899
0.005600
-0.007103
-0.004392
0.005838
0.013119
0.004987
0.006432
0.004651
0.005957
-0.004293
-0.005638
-0.000672
-0.000771
-0.004550
-0.004135
-0.008666
0.005937
0.005244
0.002454
0.007342
-0.006964
-0.004609
-0.006746
0.005581
-0.001899
0.005145
0.000832
0.005680
-0.004570
0.000100
-0.004629
-0.007122
0.004394
0.005620
0.004611
0.005046
0.005996
0.004354
0.005600
0.005858
0.003048
-0.003046
0.005086
0.005482
0.012368
-0.002374
0.005937
0.005343
0.005957
0.005640
-0.004174
-0.004135
-0.004570
-0.010150
0.005027
0.006056
0.006214
-0.004629
-0.003501
0.005244
-0.003462
-0.003719
0.004928
0.007045
0.005225
-0.003581
-0.003224
-0.004550
-0.007004
0.005126
0.006135
0.007085
-0.003145
-0.002571
-0.004985
-0.003561
-0.002829
-0.004708
-0.002750
-0.003581
-0.003818
-0.002492
-0.004293
-0.002888
-0.003442
-0.004115
-0.002532
-0.003937
0.006669
0.005126
0.006135
0.007282
0.006530
0.006689
0.007441
0.005225
0.007263
0.006234
0.006590
0.000456
0.005561
-0.002433
-0.001404
-0.000969
-0.002017
-0.003541
-0.002591
-0.000751
-0.003482
-0.001879
-0.002967
-0.002552
-0.002116
-0.003402
0.005403
-0.002057
-0.002987
-0.002156
-0.002947
0.007441
-0.002057
-0.002888
-0.005638
-0.003264
-0.002037
-0.001938
-0.002888
-0.002314
-0.002156
-0.002789
-0.001800
-0.002532
-0.002314
-0.001918
-0.002750
-0.001978
-0.002374
-0.002354
-0.001938
-0.002690
-0.001978
-0.002255
-0.002532
-0.001780
-0.006727
-0.001028
-0.002037
-0.002413
0.005027
-0.002037
-0.001068
-0.000830
0.006807
-0.001226
-0.002037
-0.002532
-0.003304
-0.003620
-0.002809
-0.000692
-0.001602
-0.001562
-0.002374
-0.002512
-0.002255
-0.002670
-0.002255
-0.002433
-0.002651
-0.002215
-0.002651
-0.002473
-0.004728
-0.001186
-0.002393
-0.002591
-0.002809
-0.002651
-0.003205
-0.002571
-0.002848
-0.003106
-0.002651
-0.003264
-0.002769
-0.002848
-0.003264
-0.002829
-0.005836
-0.003185
0.006629
0.006728
0.006709
0.006412
0.006788
0.006392
0.006392
0.006610
-0.002888
-0.004511
0.005976
0.006491
0.006095
0.014129
0.005482
-0.002769
0.005422
-0.004016
-0.004530
-0.004016
0.005976
0.015098
0.000931
0.003167
0.005561
0.006451
0.004018
0.006511
-0.004392
-0.004807
-0.002888
-0.005322
0.003285
0.005660
0.004809
-0.003759
0.004433
-0.004412
-0.004352
-0.005896
-0.003739
-0.004451
-0.004748
-0.004194
-0.005915
0.001702
-0.008567
-0.004966
-0.003521
-0.005757
-0.004926
0.004769
0.002237
-0.004293
-0.007399
0.004928
-0.004788
0.002375
0.005304
0.004651
0.004215
0.005422
0.003879
-0.000217
0.002731
-0.001167
-0.004748
0.003562
-0.001087
-0.005243
0.001307
-0.002374
-0.006153
0.002494
0.005126
-0.006568
-0.004471
-0.004669
-0.002750
0.004255
-0.000810
0.004552
0.004097
0.003780
0.004572
0.003661
0.004196
0.004196
0.003760
0.004077
-0.005935
0.003780
0.004433
0.003879
0.003899
0.004275
0.003760
0.004334
0.004097
0.003919
0.004156
0.003741
0.004176
0.004057
0.002870
0.002217
0.003760
0.004116
-0.005876
-0.006410
-0.008290
0.003642
0.003899
0.005343
0.003582
0.004572
0.003879
0.003879
0.004473
0.003483
0.004314
0.004136
0.003839
0.004413
0.003741
0.004394
0.003998
0.001346
0.004374
-0.005935
-0.005144
-0.005421
0.003800
-0.003007
-0.005757
-0.006054
-0.004966
-0.005915
-0.005599
-0.005619
-0.006014
-0.005421
-0.005856
-0.005777
-0.005539
-0.005995
-0.005480
-0.005579
-0.005658
-0.005065
-0.004827
-0.005302
-0.007023
-0.005935
-0.006450
0.002909
-0.000632
-0.002077
0.003582
0.004730
0.003622
0.004057
0.004532
0.002811
-0.001899
0.001742
-0.005797
-0.005342
-0.006608
-0.004946
-0.006232
-0.004906
0.000970
0.003266
0.004651
0.003958
0.003721
0.005680
0.002890
-0.004412
-0.005262
-0.006133
-0.005183
-0.006588
-0.005579
0.000832
0.003187
0.013970
0.003780
0.002791
0.001267
0.003780
0.003127
-0.005460
0.001702
0.003345
0.003721
-0.005856
0.003483
0.003701
0.004453
0.002098
0.003978
0.003701
0.003622
0.003938
0.003325
0.003899
0.003721
0.003444
-0.005856
0.003008
0.003820
0.001623
-0.007360
0.003879
-0.002571
0.003483
0.003582
0.001524
0.004789
-0.005520
-0.005144
-0.006371
-0.005777
0.001722
0.003859
0.003305
0.002909
-0.005856
-0.007182
-0.006192
-0.006272
-0.000593
-0.005797
-0.006291
0.003048
0.003998
0.002573
0.003859
0.003266
0.002731
0.003978
0.002632
0.007777
0.001722
0.003642
0.003958
0.003167
-0.006529
-0.006173
-0.007300
0.003780
-0.005955
0.002949
0.003800
0.001148
0.003246
0.001920
-0.003838
-0.006232
0.003285
-0.007340
-0.006232
-0.006529
0.000397
-0.006192
0.003384
-0.005164
0.003088
-0.006549
0.003622
0.003068
0.005225
-0.006766
-0.006153
0.001208
0.003404
0.004314
0.003345
0.003919
0.004116
0.003384
0.004235
0.003582
0.003978
0.004453
0.003562
0.004354
0.003839
0.003859
0.004354
-0.005737
0.004037
0.004136
0.004097
0.004116
0.003266
-0.004550
0.003998
0.004591
0.004413
0.004057
0.004829
0.004255
0.004631
0.003068
0.008252
0.005086
0.004552
0.004512
0.005185
0.004433
0.005264
0.004928
0.004572
0.005482
0.004730
0.005284
0.005323
-0.004807
-0.004451
0.004532
0.005798
-0.008151
-0.004985
-0.003838
-0.009991
-0.004511
-0.003620
-0.004491
-0.004115
-0.003680
-0.004451
-0.003323
-0.003976
-0.003818
-0.003304
-0.004016
-0.003185
-0.003620
-0.003680
-0.003027
-0.003818
-0.003244
-0.003284
0.003622
-0.002710
-0.003600
-0.003323
-0.002809
-0.003739
-0.002690
-0.003323
-0.003205
-0.002512
-0.003561
-0.002532
-0.002928
-0.003224
-0.002413
-0.003383
-0.002631
-0.002413
-0.003086
-0.002334
-0.002967
-0.002611
0.007144
0.007025
0.007342
-0.002809
-0.002571
-0.002473
-0.002631
-0.002374
-0.002651
-0.002354
-0.002215
-0.002571
-0.002453
-0.005935
0.005818
0.001881
0.000990
-0.003858
-0.002334
0.004710
0.005284
0.000258
0.006906
0.001069
0.003760
0.003938
0.005699
0.000773
0.005244
-0.000197
-0.000533
0.002336
0.005027
-0.001641
-0.002374
-0.002453
-0.001562
-0.002809
-0.001859
-0.002156
-0.002473
-0.001622
-0.002670
-0.001899
-0.001879
-0.002690
-0.001582
-0.002532
-0.002017
-0.001760
-0.002532
-0.001681
-0.002294
-0.002275
-0.001721
-0.002611
-0.001938
-0.002235
-0.002453
-0.001839
-0.002532
-0.002037
-0.002235
-0.002532
-0.002037
-0.002374
-0.002275
-0.002176
-0.002710
-0.001998
-0.002670
-0.002492
-0.005757
-0.000613
-0.002195
0.007025
0.007183
0.006807
0.005976
0.007639
-0.002492
0.006194
-0.007103
0.006214
0.005225
-0.001721
-0.004174
-0.001384
0.004987
0.006313
-0.006212
-0.004689
0.004789
0.007144
-0.003798
0.007856
-0.007182
0.014920
-0.002235
-0.003660
-0.003027
-0.002789
-0.003858
0.012862
0.006550
0.011695
-0.004412
0.005937
-0.002928
-0.007617
-0.003046
-0.002255
-0.003937
-0.003541
-0.002690
-0.004392
-0.003125
0.005165
-0.001463
0.007005
-0.003264
-0.002591
0.005561
0.005205
-0.002809
-0.004609
0.004829
0.006056
0.005937
0.007005
-0.008191
-0.001820
0.005996
-0.003561
-0.003501
-0.004095
-0.003264
-0.003957
-0.003699
0.006135
0.005858
0.006550
-0.003976
-0.003798
-0.003798
-0.004055
-0.003818
-0.003818
-0.003996
-0.003877
-0.004036
0.005561
0.006056
0.005858
0.004512
0.001168
-0.005005
-0.003561
-0.002591
-0.004174
-0.004075
-0.004352
-0.001424
0.005779
0.005640
-0.003838
0.005403
-0.002097
-0.003363
0.004967
0.003562
0.005383
0.005917
-0.002413
-0.004946
-0.003422
-0.004194
-0.004313
-0.003402
-0.004629
-0.003739
-0.003937
0.005066
0.006530
-0.004174
0.005521
0.006333
-0.001701
-0.003937
0.004809
0.005620
0.006214
0.006234
0.006056
0.005818
0.003859
0.006056
0.005422
0.006016
0.005680
0.005541
0.006095
0.005581
0.005779
0.010053
0.003206
0.005996
0.005541
0.006036
-0.002037
0.001148
0.002731
0.005719
-0.003798
-0.004095
-0.004392
-0.003739
-0.004412
-0.008191
-0.003897
-0.004313
-0.003640
-0.004412
-0.003877
-0.003897
-0.004412
-0.003660
-0.004352
-0.003976
-0.003897
-0.004451
-0.003937
-0.004194
-0.004075
-0.003778
-0.004253
-0.003818
-0.003244
-0.007558
-0.004036
-0.004412
-0.003937
-0.004372
-0.004214
-0.003917
-0.004431
0.005521
0.005719
-0.005599
-0.004372
0.003206
0.005719
0.005343
0.005719
0.005521
0.005205
-0.003937
0.004948
0.005561
-0.003323
-0.005223
-0.004036
-0.004629
-0.004867
-0.005005
-0.005262
-0.003046
-0.004055
-0.003284
-0.005896
0.000120
0.003068
0.003899
-0.003363
-0.004135
0.004394
0.004235
0.003622
-0.005500
-0.003482
-0.001483
-0.004055
0.001208
0.004136
0.005581
0.004295
0.004849
-0.003521
0.003701
0.005343
0.004374
-0.005460
-0.006687
0.001228
-0.003818
0.002158
-0.005678
-0.004273
0.002454
0.005363
-0.005164
-0.006390
0.005106
0.003642
0.004591
0.004671
0.000871
-0.004412
-0.006272
-0.004135
0.004671
0.003384
0.003562
0.003562
-0.005045
0.002890
0.003345
0.005007
0.003384
0.004037
0.004453
0.003028
0.004631
0.001188
0.003404
0.004314
0.008074
-0.000276
0.003404
-0.003086
0.002415
0.002811
0.004433
0.003523
0.003246
-0.005124
-0.006371
-0.011179
-0.004985
-0.006074
-0.005065
-0.006766
0.003820
0.004176
0.002712
0.004552
0.003167
0.003523
0.003681
0.002909
0.004492
0.003523
-0.013157
0.003681
0.003147
0.004453
0.002989
0.003879
0.003464
0.003028
0.004394
0.003384
0.003780
0.004215
0.003246
-0.005381
0.003167
0.003681
-0.005084
-0.006984
-0.005203
-0.005856
-0.006648
-0.004827
0.003068
0.008549
0.004473
-0.006410
-0.009279
-0.006628
0.001485
0.004037
-0.006371
0.004750
0.003958
0.004671
0.004611
0.003998
0.004849
0.004235
0.004532
0.004908
0.004176
0.004987
0.004572
0.004591
0.004591
0.004354
-0.002809
-0.002651
0.004077
-0.008606
0.004176
0.003345
0.005304
-0.005500
-0.007894
0.003879
0.003741
0.005600
0.003345
0.005759
0.004631
0.005521
0.005620
0.004433
-0.002928
-0.004788
0.003998
0.005046
0.004215
0.006788
-0.003561
0.003780
-0.005718
-0.004768
-0.003640
-0.002611
-0.005104
-0.002097
-0.003957
-0.003858
-0.002176
-0.004570
-0.002374
-0.003145
-0.003719
-0.001780
-0.009141
-0.002651
-0.002809
-0.003561
-0.001503
0.001623
-0.004154
-0.000850
-0.002453
0.002929
-0.000890
-0.000929
-0.002848
-0.004154
-0.001048
-0.004154
-0.000533
-0.000454
-0.001622
-0.000909
0.006432
0.010983
0.003820
0.004948
0.005165
-0.001384
-0.002908
-0.001107
-0.002097
-0.001918
-0.001107
-0.002552
-0.001087
-0.001701
-0.001879
-0.000830
-0.002116
-0.001107
-0.001463
-0.001918
-0.000850
-0.001899
-0.001127
-0.001246
-0.001800
-0.000870
-0.001681
-0.001364
-0.000850
-0.003383
-0.001503
0.000218
-0.001325
-0.000890
-0.001661
-0.000771
-0.001246
-0.001206
-0.000810
-0.001463
-0.000890
-0.001167
-0.001345
-0.000771
-0.001404
-0.000850
-0.001048
-0.001147
-0.000692
-0.001285
-0.000989
-0.000830
-0.001246
-0.000771
-0.001206
-0.001246
-0.000989
-0.001463
-0.000949
-0.001246
-0.001325
-0.001087
-0.001424
-0.001048
-0.001167
-0.001463
-0.001068
-0.001444
-0.001246
-0.001266
-0.001602
-0.001226
-0.001523
-0.001523
-0.001305
-0.001543
-0.001226
-0.001503
-0.001562
-0.001463
-0.001740
-0.001463
-0.001760
-0.001740
-0.001562
-0.001938
-0.001740
-0.001839
-0.001879
-0.001879
-0.001978
-0.001483
-0.002374
-0.002215
-0.004412
0.007500
-0.001721
-0.002156
0.000258
0.006926
0.007223
-0.002017
0.007401
-0.002532
0.003206
-0.003125
-0.002057
-0.005441
0.006966
0.007817
0.006847
-0.002532
-0.002947
-0.002591
0.007599
0.006610
0.005759
-0.002789
-0.001384
-0.002730
-0.003422
0.006095
0.007144
0.006273
-0.002908
-0.009437
0.005739
0.007480
0.006155
-0.005401
-0.000039
-0.004055
0.006966
-0.003620
-0.003759
-0.010308
-0.004194
-0.003422
-0.002571
-0.004234
-0.002532
-0.005282
0.002336
-0.001087
0.004492
-0.003343
-0.003976
-0.004055
-0.003244
0.005027
0.006352
-0.003719
0.003919
0.006709
-0.004491
-0.006826
0.006194
0.005086
0.006293
0.004987
0.003503
-0.002453
-0.005183
-0.004214
0.002850
-0.002631
0.005699
0.004829
0.005541
-0.004807
-0.005084
-0.004392
-0.005183
-0.004748
-0.001167
-0.004946
0.004928
0.004769
-0.003838
0.004473
0.004928
0.005244
0.004314
0.005462
0.004453
0.004651
0.005086
0.004116
0.005086
0.004374
-0.003284
-0.005045
0.000634
-0.003165
-0.005539
-0.001740
0.005205
0.003919
0.004809
0.004572
0.003938
0.005086
0.004037
0.004433
0.004671
0.003938
0.004987
0.004235
0.004394
0.004829
-0.003106
0.004611
0.004394
0.004453
-0.005381
-0.007122
0.004097
0.004413
-0.005539
-0.005777
-0.005460
-0.005718
-0.005559
-0.005480
-0.005698
-0.005539
-0.005718
-0.005579
-0.005460
-0.005737
-0.005619
-0.005619
-0.005698
-0.005460
-0.005797
-0.005638
-0.011792
0.003879
0.006115
0.002494
-0.005915
-0.005084
-0.005975
0.005046
0.004591
0.003820
0.004433
0.004275
0.004018
0.004611
0.004077
0.004295
0.004314
0.003998
0.004591
0.003938
0.004097
0.004374
0.003899
0.004433
0.004176
-0.005757
-0.005955
-0.005955
-0.005599
0.001702
0.003721
-0.005342
-0.007934
-0.005441
0.003859
0.004215
0.008390
0.003701
0.004611
0.004116
0.004374
0.004453
0.003820
0.004572
0.005739
0.004215
0.004532
-0.003976
0.004473
0.004374
0.004532
0.004394
0.006788
0.003147
-0.005421
-0.005698
-0.005401
-0.005401
-0.005183
-0.005223
-0.002552
-0.003798
-0.005243
-0.005579
-0.005045
-0.005302
-0.005243
-0.003680
-0.005342
0.002751
0.000911
0.004789
0.004888
0.005205
0.004789
0.005066
-0.003323
0.004730
0.005185
0.003998
0.004769
0.005264
0.010072
-0.004352
0.004888
0.004611
0.007282
-0.012524
0.005086
0.005383
-0.004491
-0.004708
-0.004392
0.005066
-0.004293
-0.004392
-0.004827
-0.003957
-0.004748
-0.004352
-0.004194
-0.007894
-0.004135
0.005007
0.005937
0.006135
-0.002473
-0.003798
-0.004372
-0.003937
0.005838
0.005858
0.006491
0.005719
0.014148
0.006511
0.005957
0.006412
0.006372
0.006115
0.006511
0.006234
-0.006786
-0.003620
-0.003620
-0.006034
0.005640
0.002652
-0.002888
0.006352
-0.001641
-0.003778
-0.003066
-0.002195
-0.004214
-0.001800
-0.003165
-0.002809
-0.001681
-0.003759
-0.001978
0.007144
0.007104
0.006471
0.006352
-0.001226
-0.002453
-0.003145
0.003760
-0.003244
-0.001701
-0.001820
-0.002809
-0.001107
-0.002215
-0.001839
-0.001444
-0.002611
-0.001305
-0.002215
-0.001918
-0.001068
-0.002492
-0.000949
-0.000711
-0.004807
-0.000771
-0.002017
-0.000890
-0.001523
-0.001582
-0.000652
-0.001820
-0.000850
-0.001127
-0.001503
-0.000573
-0.001483
-0.000989
-0.000870
-0.001384
-0.000652
-0.001404
-0.000870
-0.000731
-0.001285
-0.000613
-0.001107
-0.000830
-0.000474
-0.001147
-0.000316
-0.000791
-0.000909
-0.000395
-0.001107
-0.000494
-0.000672
-0.000613
-0.000157
-0.000810
-0.000395
-0.000415
-0.000711
-0.000157
-0.000514
-0.000494
-0.000296
-0.000553
-0.000177
-0.000434
-0.000395
-0.000059
-0.000553
-0.000138
-0.000296
-0.000434
-0.000118
-0.000474
-0.000039
-0.000118
-0.000355
-0.000217
-0.000336
-0.000296
-0.000237
-0.000237
-0.000078
-0.000256
-0.000256
-0.000098
-0.000217
-0.000118
-0.000019
-0.000138
0.000040
-0.000336
-0.000098
-0.000118
-0.000237
-0.000098
-0.000256
-0.000138
-0.000197
-0.000157
-0.000059
-0.000296
-0.000355
-0.000157
-0.000316
-0.000237
-0.000276
-0.000276
-0.000217
-0.000395
-0.000138
-0.000256
-0.000336
-0.000256
-0.000434
-0.000395
-0.000395
-0.000553
-0.000454
-0.000474
-0.000514
-0.000454
-0.000613
-0.000474
-0.000652
-0.000731
-0.000751
-0.000711
-0.000692
-0.000731
-0.000791
-0.000949
-0.001028
-0.000929
-0.000870
-0.001167
-0.001127
-0.001087
-0.001167
-0.001206
-0.001246
-0.001107
-0.001285
-0.001147
-0.001364
-0.001384
-0.001325
-0.001701
-0.001523
-0.001483
-0.001582
-0.001543
-0.001641
-0.001740
-0.001661
-0.001740
-0.001938
-0.001820
-0.001918
-0.002057
-0.002176
-0.002097
-0.001008
-0.002195
-0.005104
0.006768
-0.002097
-0.002690
0.006016
-0.001048
-0.003224
-0.002453
-0.004689
-0.001641
-0.000553
-0.003007
-0.005480
-0.002354
-0.003897
-0.002591
-0.003185
-0.003620
-0.001661
-0.003125
0.006649
-0.001918
-0.002294
0.003127
0.006214
0.006095
0.006530
0.011042
-0.003284
-0.004174
-0.004214
-0.003422
-0.004946
-0.003917
0.005383
-0.004748
-0.003877
-0.005361
-0.004135
-0.004946
-0.005243
-0.010288
0.008925
0.003305
0.004868
-0.005579
-0.001899
0.001129
0.005244
0.004868
0.003464
0.005699
0.003464
0.004512
0.004829
0.003088
0.005027
0.003562
0.003839
0.004651
0.005442
0.004631
0.003523
0.003444
0.004473
0.002632
0.004037
0.003444
0.002929
0.004473
0.002593
0.003701
0.003642
0.002632
0.002672
0.002692
0.002949
-0.005480
-0.007696
-0.006093
-0.006568
-0.005441
0.002454
-0.007439
-0.006746
-0.007241
0.002494
0.003048
0.000891
0.001960
0.005640
-0.000336
0.000931
0.002395
0.002632
0.002692
0.002237
0.002850
0.002375
0.002494
0.002731
0.002217
0.002692
0.002276
0.002296
0.002751
0.002118
0.002454
0.002415
0.002098
0.002534
0.002177
0.002494
0.002217
0.002197
0.002316
0.002177
0.002316
0.002435
0.002237
0.002474
0.002316
0.002197
0.002355
0.002197
0.002514
0.002276
0.002415
-0.007241
0.001861
0.002731
0.002791
0.001980
0.002989
0.002177
0.002415
0.002909
0.002138
-0.012128
0.000456
0.002613
0.003424
0.001742
-0.000969
-0.007122
0.002158
-0.005995
0.001683
-0.006272
-0.002789
-0.008033
0.003048
0.001980
0.003661
0.003384
0.002237
0.004492
0.002415
0.003543
0.003958
0.002355
0.004492
0.002870
0.003187
0.004314
0.002355
-0.007775
-0.006648
-0.006648
-0.005104
0.002375
0.003602
0.003938
0.002969
-0.004550
-0.007182
-0.005381
-0.004887
-0.006964
-0.004590
-0.010862
-0.002156
-0.004748
-0.006628
0.002375
0.000575
0.003879
0.005185
0.003800
0.004888
0.004908
0.003978
0.005442
0.004295
0.003107
0.003068
0.004176
0.006748
-0.003996
-0.010961
0.005126
-0.004847
0.004492
0.005126
0.005719
0.005165
-0.002928
0.005343
-0.004372
0.003780
0.005284
-0.001562
-0.004412
0.005600
0.006570
0.007005
-0.004214
-0.003937
-0.004135
0.006768
-0.003996
-0.003185
-0.003581
-0.003699
-0.002848
-0.007657
-0.003224
-0.003323
-0.002928
-0.002987
0.005502
0.006946
0.007045
0.003285
-0.002512
-0.003145
0.005521
-0.001839
0.003464
-0.001562
-0.001246
-0.000652
0.005561
-0.000494
-0.002176
-0.002294
-0.002848
-0.001760
-0.002631
-0.002116
0.005482
-0.000434
0.005165
-0.002097
-0.005065
-0.002097
-0.001938
-0.001740
-0.001721
-0.001325
-0.001899
-0.001701
-0.001404
-0.001899
-0.001364
-0.001424
-0.001602
-0.001127
-0.001582
-0.001266
-0.001266
-0.001424
-0.001008
-0.001364
-0.001246
-0.000692
-0.001226
-0.000929
-0.001107
-0.001087
-0.001008
-0.001186
-0.000810
-0.000989
-0.000929
-0.000850
-0.001028
-0.000731
-0.000771
-0.000751
-0.000593
-0.000791
-0.000613
-0.000850
-0.000850
-0.000533
-0.000632
-0.000573
-0.000474
-0.000652
-0.000336
-0.000514
-0.000494
-0.000256
-0.000514
-0.000276
-0.000395
-0.000494
-0.000355
-0.000395
-0.000316
-0.000296
-0.000256
-0.000197
-0.000415
-0.000296
-0.000217
-0.000296
-0.000336
-0.000375
-0.000256
-0.000138
-0.000336
-0.000217
-0.000157
-0.000296
-0.000157
-0.000217
-0.000256
-0.000157
-0.000395
-0.000177
-0.000434
-0.000197
-0.000197
-0.000395
-0.000197
-0.000316
-0.000316
-0.000415
-0.000415
-0.000395
-0.000494
-0.000514
-0.000355
-0.000355
-0.000375
-0.000514
-0.000454
-0.000474
-0.000533
-0.000514
-0.000672
-0.000632
-0.000652
-0.000632
-0.000533
-0.000632
-0.000613
-0.000652
-0.000652
-0.000632
-0.000632
-0.000692
-0.000692
-0.000711
-0.000909
-0.000771
-0.000791
-0.000771
-0.000870
-0.000969
-0.000850
-0.000969
-0.000949
-0.001087
-0.001087
-0.001206
-0.001325
-0.001107
-0.001206
-0.001325
-0.001345
-0.001246
-0.001325
-0.001266
-0.001305
-0.001483
-0.001364
-0.001483
-0.001562
-0.001641
-0.001582
-0.001622
-0.001523
-0.001740
-0.001740
-0.001661
-0.001800
-0.001760
-0.001780
-0.001800
-0.001879
-0.001938
-0.001978
-0.002077
-0.002195
-0.002651
-0.003284
-0.007182
0.006847
0.001465
-0.002275
-0.002829
-0.006469
0.006748
0.007342
0.001742
-0.003086
0.008648
0.006966
-0.001226
0.007441
0.006610
-0.002176
-0.003600
0.003602
-0.002473
0.005046
0.007441
0.006570
0.006194
0.015533
0.006115
0.008054
-0.003343
-0.003957
0.005046
0.004967
-0.003620
0.002791
-0.010229
0.005957
-0.003680
-0.003224
-0.004491
0.006352
-0.003027
-0.003581
-0.003858
-0.004214
-0.003976
-0.006826
-0.004431
0.005581
-0.003996
-0.005579
-0.004431
-0.004154
-0.004135
-0.009774
-0.003323
-0.003818
0.000931
0.004750
0.009221
0.004433
-0.004075
0.004512
0.004651
0.005244
0.003701
0.003741
-0.004827
0.001821
0.005086
-0.003106
0.001366
0.000773
-0.007498
0.004018
0.010270
-0.009873
-0.005975
-0.005421
-0.005638
-0.005638
-0.005342
-0.006885
-0.005421
-0.005737
-0.006232
0.002949
0.003839
0.003879
0.003820
0.003622
0.005403
0.003701
0.004057
0.003345
0.002811
0.000970
-0.000454
-0.008310
-0.002433
0.001841
0.001465
0.001050
-0.005975
-0.001859
0.003068
0.003503
0.002712
0.003365
0.003068
0.002850
0.003543
0.002632
0.003147
0.002989
0.002632
0.003187
0.002712
0.002870
0.003008
0.002514
0.003008
0.002632
0.002712
0.002929
0.002415
0.003008
0.002593
0.002593
-0.003858
0.005403
-0.002631
0.001643
0.002118
-0.006252
-0.007597
0.002712
0.003127
0.001762
0.003365
0.002197
0.002375
0.003187
0.001881
0.007797
-0.007004
-0.007795
0.002751
0.001623
0.002534
0.002731
0.002257
0.002692
0.001604
0.002217
0.001564
0.000990
0.000614
0.002514
-0.007241
-0.007202
-0.007538
-0.007083
-0.007558
0.002217
0.009400
0.002731
0.002355
0.002573
0.002534
0.002395
0.002593
0.004809
-0.002750
0.001148
0.002573
0.002949
-0.007419
0.002632
0.002791
0.002652
0.002613
0.002969
0.002652
0.002791
0.002731
0.002593
0.002316
0.002731
0.002850
0.002949
0.002336
0.002870
0.002811
-0.004550
0.002870
0.002257
-0.006272
-0.012623
-0.006746
0.003602
-0.005025
-0.006410
-0.006806
-0.004135
-0.003205
-0.006291
0.003246
-0.000474
0.002672
-0.000296
0.000614
-0.006252
-0.006390
-0.005896
-0.005381
0.003404
0.004018
0.003602
0.003701
0.003800
0.003661
0.002969
0.003681
-0.007775
0.003562
-0.005520
0.003958
0.001920
-0.005005
-0.006568
0.003938
0.004591
0.006847
-0.004609
-0.005995
0.003642
0.005185
0.003305
0.004453
0.004552
0.003226
0.005343
-0.004629
0.001801
0.004868
0.004037
-0.003600
-0.005500
-0.005520
-0.004550
0.003780
0.005225
-0.001543
-0.005361
0.005502
0.004374
0.005165
0.005106
0.004512
-0.004115
0.004591
-0.003838
-0.004550
-0.001760
0.006194
-0.004867
0.004928
0.005897
0.004255
-0.003917
-0.007300
-0.005421
0.006036
0.005165
0.005798
0.005897
0.005343
0.006155
0.006451
-0.003739
-0.003818
-0.004392
-0.003323
-0.003086
-0.003680
-0.003660
-0.004214
-0.004847
-0.004115
-0.003581
-0.003284
-0.004016
-0.003027
-0.003680
-0.003462
-0.002967
-0.003877
-0.002848
-0.003501
-0.003402
-0.002789
-0.003620
-0.002987
-0.003066
-0.003402
0.005145
0.006511
0.007085
0.007065
0.006788
0.007124
0.006807
0.007164
0.007085
0.006847
-0.002947
-0.001780
-0.001404
-0.000415
-0.002275
0.005937
0.005858
-0.002314
-0.002255
-0.002552
-0.002017
-0.002492
-0.002136
-0.002136
-0.002473
-0.001918
-0.002097
-0.002057
-0.001760
-0.002354
-0.001800
-0.002057
-0.001918
-0.001543
-0.001899
-0.001622
-0.001206
-0.001780
-0.001404
-0.007004
0.007955
0.005244
0.008193
-0.001523
-0.001186
-0.002017
-0.000989
-0.000909
-0.005282
-0.001167
-0.001740
-0.000909
-0.001681
-0.001325
-0.001008
-0.001681
-0.000870
-0.001364
-0.001404
-0.001008
-0.001602
-0.001048
-0.001285
-0.001345
-0.000830
0.003839
0.009083
0.003305
0.007441
-0.000514
-0.001206
-0.001543
-0.000553
-0.001879
-0.000830
-0.001186
-0.001424
-0.000454
-0.001602
-0.000909
-0.000949
-0.001582
-0.000791
-0.001503
-0.001068
-0.000969
-0.001681
-0.000672
-0.001345
-0.001266
-0.000810
-0.001780
-0.000929
-0.001345
-0.001562
-0.000909
-0.001721
-0.001087
-0.001345
-0.001641
-0.001068
-0.001602
-0.001384
-0.001305
-0.001661
-0.001186
-0.001760
-0.001364
-0.001226
-0.001780
-0.001226
-0.001602
-0.001582
-0.001582
-0.001859
-0.001523
-0.001661
-0.001859
-0.001424
-0.001760
-0.001740
-0.001701
-0.001899
-0.001602
-0.001899
-0.001760
-0.001760
-0.002077
-0.001740
-0.001978
-0.002057
-0.004788
0.003345
-0.001641
-0.006212
-0.002670
-0.001681
-0.002552
-0.002195
-0.001503
-0.002730
-0.001641
-0.000237
-0.000652
-0.002947
0.006669
0.000337
-0.002571
0.006511
0.013119
0.006689
-0.002116
-0.002571
0.004888
0.007995
-0.003165
-0.005599
0.006649
-0.003185
0.006451
-0.004649
-0.003027
-0.005579
-0.002908
-0.003304
0.001485
0.006610
0.006530
0.006649
0.006570
0.006590
0.006511
0.006412
0.006432
0.006253
0.006313
0.006194
0.005323
-0.003541
0.003246
-0.001978
-0.002888
-0.004273
-0.003581
0.005264
0.006135
-0.003561
-0.004748
-0.003561
-0.007241
0.005363
0.006432
0.005145
0.005739
0.005225
0.003741
-0.003600
-0.004748
-0.004570
-0.003798
-0.005243
-0.011040
0.004690
0.008608
-0.002611
0.003859
0.004868
-0.004431
0.006827
-0.002908
-0.005856
-0.005579
-0.003957
-0.009279
0.001030
0.004374
0.003464
-0.007597
0.003008
0.004888
-0.004867
-0.005361
-0.003501
-0.008013
0.003978
-0.009259
-0.007934
-0.004332
-0.001285
0.003760
0.005660
-0.006707
-0.004075
0.003741
-0.003818
-0.004451
-0.006687
-0.005124
-0.005282
-0.006568
0.002118
-0.006529
-0.005718
-0.005777
-0.006529
0.002177
0.003642
0.004077
0.003938
0.003444
0.004176
0.003503
0.003622
0.003325
-0.004966
0.002593
0.003503
0.003404
0.003523
0.003384
0.003384
0.003404
0.003444
0.003285
0.003206
0.003325
0.008292
-0.005777
-0.013415
0.001228
0.003760
0.002949
-0.002829
0.003345
0.002652
0.003642
0.002771
0.003008
0.003701
0.002534
0.003444
0.002870
0.002909
0.003384
0.002534
0.003305
0.002929
0.002731
0.003305
0.002454
0.003107
0.003028
-0.007083
-0.006311
0.001129
0.003147
0.002909
0.002632
0.003325
-0.007063
-0.006925
0.000496
0.002909
0.003048
0.002771
0.003088
0.002890
0.002731
0.003127
0.002692
0.002929
0.002909
-0.010664
0.002593
0.002929
0.003246
0.002435
0.003384
0.002751
0.002870
0.003285
0.002534
0.003325
0.003028
0.001881
0.003246
0.002850
0.002534
0.003147
-0.004392
-0.008824
0.002593
-0.006212
0.002989
0.002969
0.004116
0.002316
-0.003897
-0.009319
0.002316
0.004473
0.002534
0.003543
0.004116
0.002553
-0.004946
0.003206
0.002316
0.002929
0.003958
0.004948
0.001267
-0.005460
-0.005084
-0.007261
0.003859
0.004769
-0.006331
0.003107
-0.004194
-0.002908
0.002316
-0.003976
-0.005342
-0.006549
-0.009042
-0.005955
-0.005658
-0.001384
-0.002928
0.002909
-0.005421
-0.005757
-0.004946
-0.005995
0.004591
0.011774
-0.005262
-0.005302
-0.005500
0.004809
-0.005045
-0.005164
-0.004728
-0.004629
0.003958
-0.004649
0.001881
0.004671
-0.004174
-0.005718
0.005106
0.005383
0.005917
0.005759
0.000001
0.004829
-0.003798
-0.005342
-0.004451
-0.004372
-0.005144
0.005699
0.005165
0.005383
0.005462
0.012150
0.006075
-0.004491
-0.004708
-0.003897
0.002870
0.005957
0.005719
0.005165
-0.003541
0.002672
0.005759
0.006372
-0.002017
-0.003106
-0.003145
-0.003877
-0.005460
0.004987
0.006986
0.005878
0.005561
0.006986
0.005046
-0.002908
-0.003739
0.001445
-0.002215
-0.004471
-0.003145
-0.002730
-0.004412
-0.007419
0.005422
0.006689
0.007540
0.004987
0.008094
0.005957
-0.003224
-0.002097
-0.004234
-0.001800
0.010033
-0.002750
-0.001998
-0.004273
-0.001444
-0.003304
-0.003125
-0.001721
-0.003937
-0.001622
-0.002651
-0.003027
-0.001246
-0.003501
-0.001839
-0.002255
-0.003284
-0.001246
0.004611
0.007995
0.008193
-0.003027
-0.001226
-0.002868
-0.001879
-0.001780
-0.002888
0.000337
0.007263
0.007935
0.006906
0.004769
-0.002077
-0.001800
-0.002017
-0.000830
-0.002730
-0.001028
-0.001820
-0.002156
-0.000711
-0.002532
-0.001246
-0.003561
-0.002255
-0.000731
-0.002136
-0.001364
-0.001107
-0.002255
-0.000909
-0.001800
-0.001562
-0.000870
-0.002057
-0.000850
-0.001483
-0.001543
-0.000731
-0.001800
-0.001048
-0.001285
-0.001641
-0.000731
-0.001641
-0.001107
-0.000989
-0.001602
-0.000751
-0.001562
-0.001206
-0.001008
-0.001622
-0.000909
-0.001444
-0.001285
-0.000791
-0.001503
-0.000969
-0.001285
-0.001345
-0.001048
-0.001602
-0.001068
-0.001167
-0.001463
-0.000989
-0.001483
-0.001206
-0.001048
-0.001503
-0.001068
-0.001523
-0.001345
-0.001147
-0.001800
-0.001246
-0.001622
-0.001622
-0.001424
-0.001760
-0.001503
-0.001681
-0.001721
-0.001424
-0.000830
-0.001503
-0.001681
-0.001998
-0.001463
-0.001958
-0.001800
-0.001820
-0.003818
-0.002097
-0.007103
-0.002215
-0.000256
-0.002195
-0.002374
-0.002215
-0.002374
-0.002314
-0.002057
-0.002611
-0.002314
-0.002453
-0.002413
-0.000632
0.007223
0.005818
-0.002453
-0.002354
-0.002453
0.005680
0.007144
0.007480
0.006629
0.006629
0.006906
0.012546
0.006610
0.005878
0.007045
0.007183
-0.003343
-0.002710
-0.003541
-0.002670
-0.003224
-0.003304
-0.001760
-0.003561
0.012546
0.007104
0.006135
0.004750
-0.002908
-0.004036
-0.003027
-0.003581
-0.003858
-0.002908
-0.003976
-0.003284
-0.003561
-0.003957
-0.002374
-0.004253
0.006016
0.005917
0.005739
-0.003264
0.004849
-0.006331
-0.001147
-0.004431
-0.003264
-0.004234
0.006709
0.006095
0.005007
-0.003501
-0.006489
0.003305
0.006709
0.003938
0.004116
0.004928
0.005007
0.006392
0.005442
-0.004115
-0.003778
-0.004332
0.012645
0.005660
0.005126
0.008608
0.009419
0.004215
-0.004511
0.005145
0.005878
0.005561
0.010666
-0.003541
-0.004748
-0.004273
-0.003897
-0.005243
-0.003858
-0.004788
0.005086
0.005086
0.002553
0.005660
-0.001918
0.004611
0.006807
-0.004392
-0.004332
-0.006311
-0.004946
-0.004075
-0.004214
-0.005025
-0.003778
-0.004926
-0.004530
-0.004095
-0.005084
-0.004154
-0.004768
-0.004629
0.005561
0.004928
0.005739
-0.000989
-0.004471
-0.010862
-0.004887
-0.004234
-0.004550
0.004611
0.007678
0.004829
0.008232
0.003760
0.003365
0.003800
-0.005065
-0.003778
-0.003838
-0.005243
-0.004847
-0.004550
-0.005579
-0.004530
-0.005045
-0.005104
-0.004372
-0.005460
-0.004728
-0.004985
-0.005282
-0.004550
-0.005421
-0.008250
0.000159
0.001900
-0.002769
-0.005757
0.004591
0.005027
0.002573
0.004769
0.004394
-0.001780
-0.003996
-0.005816
0.001960
-0.005500
-0.000751
0.004314
0.004255
0.003938
0.004255
0.003978
0.004116
0.004077
0.003582
0.004196
0.003978
0.004037
-0.001622
-0.006113
-0.007874
-0.003383
0.003661
0.004156
0.003642
0.003622
0.003998
0.003602
0.003938
0.003582
0.003543
0.003899
0.011517
0.004156
0.010725
0.003602
-0.002354
0.002593
0.004037
-0.003264
-0.006925
-0.005282
-0.006865
-0.003937
0.004552
0.002811
-0.006014
0.002158
0.003384
-0.005836
-0.007142
-0.005559
0.000060
0.000713
0.004156
0.002257
0.002791
0.002969
0.003008
0.004295
-0.007043
0.003721
0.002553
0.002949
0.003820
-0.004748
0.002850
0.003503
0.003107
0.003345
0.003464
0.003206
0.003562
0.003167
0.000931
0.003562
0.003266
0.003701
0.003285
0.002969
-0.006272
0.003028
-0.005876
-0.006430
0.002870
-0.005302
-0.000632
0.004651
0.003741
-0.007202
-0.004629
0.002949
0.003800
-0.005381
0.002355
0.004552
-0.004728
0.002811
0.004908
0.002969
0.004037
0.004334
0.002811
0.004769
0.003404
0.009162
-0.005737
0.002751
-0.004887
0.004018
0.003107
0.005937
0.006234
0.003879
0.004611
-0.002057
0.006016
0.003464
-0.004689
-0.005045
-0.006311
-0.003759
-0.000415
-0.003066
-0.004471
-0.006390
-0.003581
-0.008171
-0.005065
0.003345
-0.000256
-0.002077
-0.005262
-0.004451
0.002929
-0.005460
-0.003858
-0.004867
0.004967
-0.001998
-0.002809
0.003899
0.005205
0.002929
0.005600
0.005126
0.005759
0.006214
0.005106
0.006432
0.005779
0.005798
0.006491
0.006333
-0.002611
-0.003897
-0.004174
-0.009418
-0.004669
-0.005045
-0.002037
-0.004253
-0.002215
-0.003620
-0.003125
-0.003007
-0.004174
-0.002334
-0.003838
-0.003027
-0.002631
-0.003957
-0.002275
-0.003363
0.003464
0.007460
-0.003304
-0.002473
-0.003046
-0.003046
-0.002334
-0.003106
-0.002275
0.000001
0.006075
0.004928
0.006352
0.001228
-0.000870
-0.001998
-0.000375
-0.001760
-0.002710
0.004631
0.006906
0.006253
0.007520
0.001386
-0.001998
-0.002611
-0.001899
-0.001661
-0.002651
-0.001958
-0.003106
-0.001167
-0.004530
-0.000989
-0.000177
-0.001186
-0.001384
-0.002235
-0.002888
-0.002116
-0.002710
-0.002571
-0.002235
-0.002275
-0.002116
-0.002651
-0.002591
-0.002275
-0.002987
-0.001503
0.005284
0.006986
0.008806
-0.001127
-0.002571
-0.002928
-0.003046
-0.002769
-0.003066
-0.002769
-0.003027
-0.003066
-0.002868
-0.003284
-0.002947
-0.003046
-0.003323
-0.002987
-0.003343
-0.005401
-0.001681
-0.004966
-0.003224
-0.003640
-0.003284
-0.003739
-0.003680
-0.003383
-0.003818
-0.003383
-0.003719
-0.003957
-0.003699
-0.004036
-0.006371
-0.003482
-0.004016
-0.003957
-0.004313
-0.003937
-0.004313
-0.004491
-0.004313
-0.004708
-0.004471
-0.004649
-0.004669
-0.004511
0.004492
-0.002591
0.004572
-0.005104
0.004987
0.002474
0.005145
0.004037
-0.003759
0.004433
-0.002769
0.004611
-0.001998
0.004413
0.013614
0.004354
0.004037
0.003464
0.004532
0.003424
0.003938
0.003938
0.003167
0.004037
0.003384
0.003404
0.003622
0.002969
0.003800
0.011378
0.003464
0.003562
0.002613
0.003780
0.002731
0.003008
0.008311
-0.006925
-0.006489
-0.006984
0.002870
0.008984
0.003008
0.003048
0.002751
0.002870
0.002771
0.002791
0.002929
0.002751
0.002929
0.002731
0.007381
0.003147
0.002553
0.002870
0.003088
0.002336
0.003008
0.002494
0.002791
0.003127
0.002632
0.003127
0.002316
0.002731
0.003068
0.002751
0.003088
0.002989
0.002692
0.002850
-0.002413
0.002890
0.003938
0.004552
-0.009576
0.002811
0.002870
0.003503
0.002534
0.002514
0.002969
0.003068
0.003642
0.002791
0.003642
0.003246
0.003028
0.003958
-0.000474
-0.011495
0.003107
0.003483
0.004215
0.000871
0.004314
0.003582
0.003919
0.004295
-0.013711
0.003642
0.004295
-0.005579
-0.006074
-0.004451
-0.001681
0.010033
-0.000197
0.002593
0.004334
-0.002374
-0.002789
0.005007
0.002534
0.004215
0.005145
0.004275
0.004829
-0.002710
-0.005500
-0.004570
-0.009536
-0.002473
-0.004313
0.001485
-0.005065
-0.004214
0.000871
-0.002473
-0.004234
-0.004649
-0.003976
-0.010823
-0.003818
-0.004372
-0.004570
-0.003778
-0.004966
-0.004154
-0.004352
-0.004530
-0.003759
-0.004728
-0.003957
-0.004154
-0.004708
-0.003759
-0.004570
-0.004135
-0.003917
-0.004669
-0.003818
-0.004491
-0.004253
-0.004095
-0.004471
-0.003897
-0.004313
-0.004451
-0.004055
-0.004669
-0.004036
-0.004313
-0.004431
-0.003937
-0.004214
-0.003798
-0.000909
-0.004550
-0.003620
-0.008527
0.005106
0.009657
0.002850
-0.004669
0.005027
0.005422
0.005126
0.004888
0.005383
0.004849
0.005086
0.004987
0.004849
0.005027
0.003800
-0.006727
-0.005144
-0.005243
-0.007439
-0.003561
-0.004867
-0.005223
-0.005638
-0.004966
-0.005737
-0.005302
-0.004570
0.002494
0.004789
0.003958
-0.005559
-0.007597
-0.005559
0.004492
-0.005757
0.003483
0.004413
0.003661
-0.009734
0.003780
0.003404
0.004295
0.002989
0.003899
0.003642
0.003028
0.003938
0.002989
0.003523
0.003701
0.002791
0.003978
0.003107
0.003285
0.003404
0.002830
0.003562
0.002929
0.003088
0.003444
0.002731
-0.006648
0.002494
0.001148
0.003345
0.001940
0.003305
0.002435
0.002474
0.003305
-0.011278
0.002474
0.002652
0.002514
0.002454
0.002573
0.002435
0.005699
-0.004451
0.002197
-0.009774
0.002098
0.002296
0.003187
0.001722
0.002731
0.002316
0.002059
0.002949
0.001801
0.002652
0.002454
0.001999
0.002989
0.001940
0.002454
0.002692
0.001841
0.002811
0.002177
0.002474
0.002830
0.001940
0.002890
0.002573
0.002435
0.003206
0.002316
0.002989
0.002712
0.002652
0.003107
0.002474
0.003008
0.002989
0.002553
0.003266
0.002811
0.002969
0.003266
0.002791
0.003384
0.003246
0.003266
0.010646
-0.006450
-0.006549
0.002118
0.003978
0.003365
-0.000632
0.003938
-0.006291
-0.005856
-0.010447
0.003820
0.004176
-0.005183
-0.006074
-0.005797
-0.005718
-0.005737
-0.005460
-0.005104
0.004235
0.004631
-0.005164
-0.005480
-0.005599
0.004552
-0.012821
0.004354
-0.004985
0.005205
0.003958
0.005838
0.004512
0.005244
0.005620
0.006610
0.001287
0.007500
-0.003581
-0.003640
-0.007815
0.004018
-0.005619
-0.002987
-0.005342
-0.003778
-0.007182
-0.003304
0.005027
0.006807
0.005244
0.006313
0.006610
0.005205
0.007025
-0.001068
0.005996
0.007045
0.005917
-0.002928
-0.003363
-0.003937
-0.002591
-0.003897
-0.002947
-0.003046
-0.003640
-0.002354
-0.003383
-0.002848
-0.002631
-0.003442
-0.002294
-0.003125
-0.002868
-0.002532
-0.003284
-0.002215
-0.002750
-0.002829
-0.002057
-0.002967
-0.002235
-0.002374
-0.002789
-0.002017
-0.002868
-0.002255
-0.002176
-0.002670
-0.001839
-0.002571
-0.002354
-0.002077
-0.002690
-0.002097
-0.002374
-0.002334
-0.002017
-0.005183
-0.002195
-0.002314
-0.002354
-0.002235
-0.002413
-0.002195
-0.002195
-0.002374
-0.002433
0.006056
0.006392
0.005818
0.002355
-0.000989
-0.002532
-0.002275
-0.002077
-0.002571
-0.002077
-0.002591
-0.002552
-0.002215
-0.002809
-0.002195
-0.002354
-0.002571
-0.002215
-0.002690
-0.002374
-0.002453
-0.002710
-0.002453
-0.002848
-0.002670
-0.002651
-0.002928
-0.002532
-0.002809
-0.002829
-0.002611
-0.002928
-0.002631
-0.003007
-0.002294
-0.001602
0.005185
0.007104
0.006807
0.012862
-0.002334
-0.003561
-0.003482
0.006926
-0.002552
0.005996
0.005719
-0.003185
0.006273
0.006234
-0.001483
0.004868
0.006966
0.006432
-0.004075
0.004671
-0.001721
-0.003205
0.005878
0.005937
-0.008250
0.004789
0.006629
-0.003145
-0.004906
-0.002888
0.002791
0.005976
0.003622
0.005858
0.005482
-0.004372
0.001801
-0.000890
-0.005361
0.005779
-0.002492
-0.005441
-0.010902
-0.005084
-0.004807
-0.003778
-0.005658
-0.003640
0.004928
0.004849
0.006115
0.004037
0.006036
-0.004788
0.004196
-0.005243
0.008331
-0.004332
-0.009734
-0.008587
0.004651
-0.005797
-0.005401
0.004176
0.003622
-0.003838
-0.005619
0.004018
0.005858
0.009340
0.005581
0.004671
-0.006074
-0.004095
0.003008
-0.004392
-0.005342
-0.006093
0.005818
0.003107
0.002791
0.004611
-0.004906
0.005383
0.003325
0.003681
0.004572
0.003503
-0.002651
-0.003976
-0.008409
0.004413
0.003246
-0.001068
0.003048
0.004453
0.004769
0.002791
0.005284
0.003305
0.003958
0.004967
0.002811
0.004829
0.003008
-0.004154
0.001762
0.002949
-0.004985
-0.004590
0.003008
-0.004649
-0.007083
-0.005322
-0.005718
-0.007043
-0.004669
-0.006865
-0.005737
-0.005322
0.000021
-0.001266
0.002949
0.003325
0.003800
0.000377
-0.003541
0.001485
0.002197
0.004750
0.002237
0.004413
0.003562
0.002890
0.004948
0.002573
0.004057
0.003780
0.002692
0.004611
0.002712
0.003661
0.004037
0.002573
0.004492
0.002494
0.003404
0.003483
-0.000969
-0.005500
-0.006568
-0.006786
-0.005460
-0.007261
-0.005757
-0.006469
-0.005995
0.003958
-0.006509
-0.006034
0.001505
0.003246
0.003859
-0.006450
-0.004115
0.003167
0.003622
0.003622
0.003167
0.002613
0.003187
-0.000613
0.003483
-0.006311
-0.006192
0.002811
0.003859
0.003187
0.003088
0.003741
0.001920
-0.006113
-0.006588
-0.006845
-0.005915
-0.007023
-0.004372
-0.006252
0.000139
0.004057
-0.006588
0.000891
-0.005737
0.002771
-0.005995
-0.000969
0.002652
0.004275
0.002632
0.003404
0.003820
-0.003897
0.000773
0.002355
0.003266
0.003721
0.002632
0.008984
0.003266
-0.000870
-0.013593
0.002177
0.003523
0.003523
0.002336
0.004215
0.002573
0.003305
0.003701
0.002316
0.003899
0.002652
0.003048
0.004591
0.002237
0.003760
0.003088
0.002830
-0.005777
0.001247
0.003661
0.003404
0.002355
-0.001958
0.001465
-0.006192
-0.006014
-0.000256
0.004611
0.002692
0.003127
0.004235
0.002098
0.003345
-0.005084
-0.007023
-0.005520
-0.007281
-0.005836
-0.006252
-0.007004
-0.005441
-0.007043
0.002534
-0.006766
0.002514
-0.005164
0.008687
0.003266
0.004671
0.002197
0.004730
0.003325
0.002929
0.004789
-0.007023
0.003919
0.003958
0.002989
0.004473
0.006867
-0.006885
0.003622
0.003048
0.004631
0.002909
0.004255
0.004057
0.003028
0.004730
0.003107
0.004057
0.004116
-0.006371
-0.006192
-0.006192
0.000555
-0.003106
-0.010407
-0.005144
-0.005579
-0.005896
-0.007360
-0.005876
0.001247
-0.005203
-0.005876
-0.005302
-0.005421
-0.000276
0.004789
0.004354
0.004492
0.004690
0.004374
0.004829
0.001940
0.006234
0.004611
0.004492
0.004829
-0.002829
0.004235
0.005106
0.004908
0.004611
0.005442
0.004552
0.005145
-0.005460
-0.002967
0.005502
0.005284
0.004987
0.003780
0.004888
0.005600
-0.001147
-0.004847
-0.003957
-0.010921
-0.004550
-0.003818
-0.004313
-0.003996
-0.003818
-0.004194
-0.003620
-0.004036
-0.004095
-0.003482
-0.004055
-0.003600
-0.003798
-0.006667
-0.003442
-0.003442
0.006273
0.005858
0.006293
0.006392
0.006392
0.006293
0.006471
0.006471
0.006451
-0.002987
-0.003363
-0.003106
-0.002947
0.006293
0.007144
-0.002789
-0.003323
-0.002492
0.005759
-0.001305
0.006748
0.004750
-0.003561
-0.005698
-0.001998
-0.002136
-0.003264
-0.001740
-0.009517
0.006906
0.007935
0.006728
0.006768
0.006511
0.010349
-0.004788
-0.002769
-0.002334
-0.001147
-0.002987
-0.001127
-0.002136
-0.002374
-0.000929
-0.002809
-0.001364
-0.001701
-0.002294
-0.000909
-0.002413
-0.001543
-0.002631
-0.002255
-0.000751
-0.001938
-0.001582
-0.000969
-0.002097
-0.000711
-0.005302
-0.001780
-0.000632
-0.001800
-0.001048
-0.001048
-0.001523
-0.007261
-0.000969
-0.000711
-0.000553
-0.001760
-0.000157
-0.001463
-0.001008
-0.000573
-0.001740
-0.000355
-0.001167
-0.001087
-0.000276
-0.001048
-0.000296
-0.000692
-0.001147
-0.000177
-0.001285
-0.000553
-0.000711
-0.001226
-0.000237
-0.001167
-0.000751
-0.000533
-0.001206
-0.000296
-0.000949
-0.000751
0.002870
-0.000969
-0.000296
-0.000890
-0.000711
-0.000474
-0.000850
0.006392
0.002118
-0.000850
-0.000850
0.008193
-0.000553
-0.000751
-0.000969
-0.000375
-0.001087
-0.000672
-0.000593
-0.001028
-0.000355
-0.001068
-0.000711
-0.000533
-0.000870
-0.000375
-0.000929
-0.000810
-0.000593
-0.001068
-0.000632
-0.000929
-0.000909
-0.000632
-0.001167
-0.000731
-0.000870
-0.001107
-0.000593
-0.001068
-0.000909
-0.000850
-0.001186
-0.000711
-0.001087
-0.001008
-0.000830
-0.001147
-0.000929
-0.001206
-0.001087
-0.000989
-0.001384
-0.001127
-0.001167
-0.001345
-0.000969
-0.001463
-0.001285
-0.001424
0.007619
-0.000533
0.003325
-0.001503
-0.004055
-0.002334
0.007164
0.011853
-0.001483
-0.001543
-0.002314
-0.001127
-0.002235
-0.001978
-0.001602
-0.002552
-0.001523
-0.002215
-0.002294
-0.001740
-0.002571
-0.004016
0.007362
0.006155
-0.001622
-0.002571
-0.001800
-0.002492
-0.002829
-0.001780
-0.002631
-0.009418
0.007045
0.012407
-0.001226
0.005699
0.007520
0.007579
0.010587
-0.000949
-0.004036
-0.002947
-0.001345
-0.005539
-0.000098
-0.002215
0.003167
-0.001463
-0.004471
-0.002255
-0.002967
-0.004115
-0.000573
-0.003759
-0.002809
-0.002789
-0.004352
-0.002176
-0.004154
-0.003323
-0.002829
-0.004253
-0.002651
-0.004016
-0.003719
-0.002908
-0.006351
-0.001325
0.005897
0.005699
0.007797
-0.004827
0.005976
0.005838
-0.004016
0.005759
0.005620
0.005937
0.005284
-0.003917
-0.004550
-0.002374
-0.003996
-0.004095
0.005403
0.001406
0.003107
0.008371
0.005185
0.004829
0.003998
-0.004332
0.004730
0.007085
-0.004590
-0.005203
0.002019
0.004948
0.004730
0.004829
0.004710
0.004710
0.004730
0.004651
0.004730
-0.004946
-0.010526
0.004196
0.004809
-0.001543
0.004077
0.004849
-0.005342
0.005225
-0.004669
-0.005797
-0.005619
0.007065
0.005600
0.004849
0.000693
-0.001681
-0.006549
0.003305
-0.002433
-0.005777
-0.006845
-0.001285
0.003107
-0.005084
0.003839
-0.006173
-0.006509
0.001287
0.004710
0.003800
0.003088
-0.004511
0.002316
0.000436
0.004097
0.002474
0.005521
0.002632
-0.009714
-0.005500
0.002138
-0.004590
0.002257
-0.005856
-0.005025
0.001327
0.005304
-0.006984
0.002791
-0.002670
0.001465
-0.009497
-0.006430
-0.007973
0.005521
0.001425
0.004354
0.003859
0.001821
0.005343
0.001980
0.003780
0.004255
0.001584
0.005066
-0.007320
0.002731
0.004374
0.001861
0.004097
-0.005480
-0.007518
-0.005322
-0.007578
-0.006331
0.000753
0.002237
0.004215
0.007718
-0.007498
0.003226
0.002257
0.004512
0.000812
0.003622
0.003483
0.002039
0.004275
0.002435
0.002969
0.003701
0.002098
0.003543
-0.006845
-0.007122
-0.006133
-0.007459
0.002692
0.003444
0.002534
0.003028
0.002830
0.003048
0.003404
0.002613
0.003642
0.002989
0.002395
0.003503
0.002850
0.003523
0.003068
-0.006667
-0.006311
-0.007142
-0.009813
0.002652
0.003305
0.003820
0.002534
0.003938
0.003008
0.003147
0.003701
0.001643
0.001465
0.003028
-0.006509
0.001406
-0.005203
0.003780
0.003028
-0.006212
-0.006529
-0.006826
0.003681
0.001287
0.003721
-0.006232
-0.006687
0.003305
0.003661
-0.005698
0.001366
0.003503
0.003562
0.003107
0.003839
0.002078
0.001663
0.001247
0.002890
0.006471
-0.005915
-0.006667
-0.006113
-0.006192
0.000654
0.005779
-0.006074
0.001050
0.002237
-0.001978
0.003246
0.004176
0.003483
0.003701
0.004097
0.003365
0.004255
0.003622
0.003642
0.004215
0.003483
0.004057
0.003958
0.003642
0.004235
0.003721
0.004057
0.004097
-0.004115
-0.005579
-0.005935
-0.005520
-0.005658
-0.005797
-0.005361
-0.005718
-0.005302
-0.005520
-0.005678
-0.005401
-0.005638
-0.005480
-0.005381
-0.005678
0.004215
0.005502
0.000515
-0.005401
-0.005460
-0.000078
0.002415
0.004295
-0.002947
-0.012722
-0.005737
-0.005203
-0.005737
0.003978
0.007757
0.004275
-0.009121
0.004314
-0.005342
-0.005005
-0.005955
0.002514
-0.005282
0.008865
-0.000316
0.004196
0.004453
0.004967
0.003602
-0.004392
-0.004036
0.004037
0.005759
0.003602
0.005838
0.003384
0.003780
0.010864
-0.004174
-0.005104
0.002494
0.004275
0.005145
0.006906
-0.004748
0.002751
-0.005164
-0.003343
0.008153
0.010963
-0.004669
-0.005599
-0.004075
-0.005460
-0.004708
-0.004313
0.004156
0.005719
-0.004609
0.004314
0.010943
0.004690
0.005264
0.005680
-0.004966
-0.004174
-0.004669
0.002890
0.005343
0.006590
0.004572
0.005422
0.013080
-0.001503
-0.004788
-0.008844
-0.003838
-0.004926
-0.003462
-0.004609
-0.004194
-0.003620
-0.004649
-0.003442
-0.004273
-0.004174
-0.003402
-0.004629
0.007124
-0.003600
-0.004352
0.006056
-0.000771
0.005541
0.006115
0.005937
0.005521
0.006333
0.005541
0.006194
0.006075
0.005660
0.006432
0.005680
0.006135
0.006273
0.005897
0.006471
0.006056
0.006075
-0.003086
-0.003937
-0.002433
-0.003442
-0.003917
-0.003007
-0.003778
-0.003541
-0.003185
-0.003818
-0.003224
-0.003462
-0.003442
-0.002987
-0.003739
-0.003086
-0.003205
-0.003462
-0.003007
-0.003640
-0.003185
-0.003264
-0.003482
-0.003066
-0.003620
-0.003205
-0.003086
-0.003482
-0.002987
-0.003363
-0.003363
-0.002987
-0.003482
-0.003046
-0.003165
-0.003323
-0.003145
-0.003383
-0.003304
-0.003383
-0.003343
-0.003284
-0.003640
-0.003304
-0.003462
-0.003680
-0.003442
-0.003600
-0.003501
-0.003383
-0.003680
-0.003541
-0.003719
-0.003719
-0.003581
-0.003957
-0.003660
-0.003798
-0.003897
-0.003699
-0.004214
-0.003996
-0.004016
-0.009596
0.000199
-0.004055
0.005600
0.005403
0.005323
0.005046
0.007480
0.005561
0.004948
0.005779
0.004987
0.002158
-0.012346
0.004136
0.005600
0.005165
0.004512
0.005838
0.004196
0.005126
0.005145
0.003701
0.005581
-0.005322
-0.013256
0.004334
0.004374
-0.001760
0.003760
0.004769
0.004651
0.003701
-0.011258
-0.006925
-0.007063
-0.007004
-0.010565
-0.005500
0.003305
0.003879
0.010270
0.002811
-0.002492
0.008212
0.003859
0.002692
0.002039
0.004928
0.003068
0.003107
0.004572
-0.013672
-0.007973
0.002929
0.003127
0.004136
0.002375
0.003998
0.000100
-0.006964
0.003562
0.002454
0.003523
0.002870
0.002830
0.003523
0.002395
0.003226
0.002811
-0.007122
0.003028
0.002375
-0.006371
0.002118
0.002791
0.002534
0.001861
0.003404
0.002217
0.002454
0.003345
0.001881
0.003226
0.002375
0.002296
0.002949
-0.007696
0.002652
0.002850
0.002454
-0.006826
-0.000375
0.002435
0.002989
0.001999
-0.006608
-0.011832
0.001940
0.003444
0.002118
0.002712
0.003266
0.002138
0.003523
0.002415
0.002731
0.003206
0.002336
0.003424
0.002731
0.002276
-0.006153
0.002098
0.003404
-0.006311
-0.007182
0.003741
-0.006845
0.000951
-0.005559
0.001604
0.003444
0.003622
0.002474
0.003919
0.002791
0.003246
0.003919
0.002514
0.004037
0.003187
0.005363
-0.006549
0.002573
0.004018
0.003879
0.002652
0.004631
0.002909
0.003721
0.004196
0.002830
0.004631
0.003404
0.004671
0.003661
0.002870
0.004651
-0.005638
0.003088
-0.004629
0.003424
0.004196
0.005046
0.003127
0.006550
-0.004332
-0.005836
-0.004511
-0.006212
-0.004768
-0.005223
-0.005816
-0.004412
-0.005975
-0.004827
-0.008349
0.001821
0.005719
0.004552
-0.004847
-0.004194
-0.005619
-0.004036
0.004512
0.005007
0.005244
0.004255
0.005976
0.007124
-0.004728
-0.003917
-0.005421
-0.003680
-0.004669
-0.004748
-0.003501
-0.005203
-0.003798
-0.004392
-0.004748
-0.003581
-0.004966
-0.003858
-0.004135
-0.004768
-0.003442
-0.004728
-0.004174
-0.003957
-0.004590
-0.002057
-0.004253
-0.004174
-0.003699
-0.004530
-0.003620
0.005581
0.010745
-0.003046
-0.011139
-0.003917
-0.003739
-0.003739
0.006135
0.005818
0.005996
-0.003422
-0.004273
-0.003620
-0.003838
-0.004332
-0.003482
-0.004194
-0.003957
-0.003145
-0.010585
0.013970
-0.002809
0.005878
0.005422
0.006392
0.005343
0.006649
0.006075
0.005640
-0.002888
-0.010981
-0.003778
0.006313
0.005640
-0.002512
0.005343
0.006273
-0.001068
-0.004649
0.004591
0.005878
0.006036
0.006986
0.005581
0.006966
0.010547
-0.003561
0.006610
-0.003759
-0.002987
-0.004055
-0.003343
-0.003323
0.005600
0.007144
-0.006529
-0.003759
-0.011100
0.005541
0.006709
0.007164
-0.004036
-0.002453
-0.004075
-0.003125
0.006669
-0.003759
0.007124
0.005680
0.006511
0.006590
0.006590
0.008826
0.004018
0.007005
0.007658
-0.003027
-0.002888
-0.003561
0.007005
0.006926
-0.002552
-0.005995
-0.003106
0.006115
0.006926
-0.001721
-0.003046
0.001801
0.004868
-0.002888
-0.002611
-0.000157
-0.002591
-0.002591
-0.002473
-0.000850
-0.002591
-0.002631
-0.002334
-0.002512
-0.002294
-0.002453
-0.002532
-0.002374
-0.002433
-0.002393
-0.002492
-0.002156
0.007342
0.011457
-0.001780
-0.002651
-0.002275
-0.001998
-0.002631
-0.001879
-0.002393
-0.002393
-0.001978
-0.002512
-0.001938
-0.002275
-0.002354
-0.001978
-0.002670
-0.002017
-0.002136
-0.002294
-0.001938
-0.002532
-0.002037
-0.001938
-0.002354
-0.001879
-0.002334
-0.002136
-0.002017
-0.002473
-0.002136
-0.002532
-0.002374
-0.002077
-0.002552
-0.002136
-0.002294
-0.002413
-0.002116
-0.002492
-0.002275
-0.002294
-0.002591
-0.002374
-0.002730
-0.002651
-0.002591
-0.002809
-0.002670
-0.002690
-0.002789
-0.002571
-0.002848
-0.002769
-0.002888
-0.002928
-0.002888
-0.003205
-0.003007
-0.003145
-0.003224
-0.003125
-0.003264
-0.003185
-0.003264
-0.003422
-0.003323
-0.003442
-0.003561
-0.003541
-0.003719
-0.003561
-0.003699
-0.001740
-0.002750
-0.001681
-0.001562
0.005779
0.005403
-0.005421
-0.004669
0.005502
0.005798
0.005284
0.005699
0.005363
0.011794
0.005719
0.004849
0.005225
0.005383
0.004512
0.005541
0.004829
0.004710
0.005205
0.004492
0.005007
0.004690
0.004888
0.005086
-0.007202
-0.005539
-0.008250
-0.005718
-0.011733
0.003938
0.004215
0.003127
0.003602
0.003503
0.003780
0.003879
-0.005599
-0.010011
0.003978
0.003187
0.003206
0.004215
0.003483
0.003404
-0.011198
0.002534
0.003919
0.004018
0.002098
0.004453
0.002632
0.003444
0.002158
0.002276
0.004037
0.002890
0.003147
0.003978
0.002415
0.003760
0.003028
0.002573
0.003859
0.002316
0.003523
0.003068
0.002435
0.003741
0.002573
0.003246
0.003246
-0.015749
0.002949
0.002850
-0.006291
-0.007399
-0.006628
-0.000059
0.002474
0.003661
0.002494
-0.005559
-0.006667
0.001544
0.003919
0.002791
0.002039
-0.006153
-0.007696
0.003523
0.003048
0.002593
0.003721
-0.007023
0.003008
0.003305
0.002890
0.003127
0.003345
0.003088
0.003582
0.003147
0.003246
0.003444
0.003127
0.003503
-0.006291
-0.006746
-0.012801
-0.006568
0.003246
0.003424
-0.006588
-0.006252
-0.006153
-0.006232
0.003582
0.003721
0.003741
0.013317
-0.005381
0.003365
0.003642
0.004572
0.002890
0.004512
0.002316
0.003582
0.004631
0.003305
-0.005144
0.003859
0.003721
0.005106
0.003305
0.004908
0.004275
0.003661
0.005225
0.003543
0.004572
0.004829
-0.004966
-0.004590
0.003741
-0.004827
0.004374
0.004116
0.005759
0.003741
0.010033
-0.004234
-0.001483
-0.004055
-0.005401
-0.005183
-0.003957
-0.005915
-0.004154
-0.004966
-0.005381
-0.003739
-0.005658
-0.004293
-0.004431
-0.005262
-0.003838
-0.005282
-0.004629
0.002811
0.005145
-0.003561
-0.005104
-0.004728
-0.003858
-0.005361
-0.003561
-0.004748
-0.004728
-0.003778
-0.005104
-0.003778
-0.004431
-0.004887
-0.003759
0.002712
0.005957
0.005818
0.004868
0.006372
0.004849
0.005521
0.005897
0.004868
0.006293
0.004671
0.004591
0.004453
0.003127
0.000218
-0.003957
-0.004293
-0.003640
-0.004431
0.002712
-0.003897
-0.004768
-0.009299
-0.004471
-0.004392
-0.003660
-0.004906
-0.005104
-0.004412
-0.004392
-0.003482
0.004928
0.006451
-0.003818
-0.004926
-0.003521
-0.004669
-0.004036
-0.003680
-0.004748
-0.003323
-0.004293
-0.004214
-0.002591
-0.004748
-0.003699
-0.004194
-0.004036
0.006135
0.005403
0.006135
0.007856
-0.003798
-0.001721
0.000614
-0.010189
-0.004807
0.005680
0.006550
0.004987
0.006570
0.005600
0.005521
0.005739
0.003562
-0.001048
0.005244
0.005521
0.006590
0.005066
0.006273
0.005917
0.005244
0.006590
0.005284
0.006056
-0.004590
0.009558
0.006847
-0.003858
0.005027
0.007045
0.004987
0.006115
0.003820
0.004967
0.006986
-0.004135
-0.004075
-0.002967
-0.004570
-0.003284
-0.003640
-0.004214
-0.003007
-0.003620
-0.003284
-0.003323
-0.002987
0.007104
-0.003541
0.006174
0.006748
-0.001186
-0.003383
0.010231
-0.002947
-0.003264
-0.002928
0.006966
-0.003284
-0.006826
0.014445
-0.002354
0.005581
-0.003680
0.007619
-0.010684
-0.002453
-0.001127
0.005739
-0.006331
0.001287
-0.002354
-0.002611
-0.004985
-0.001958
0.009360
-0.001661
-0.002433
-0.003541
-0.002532
0.006075
0.007777
0.000832
0.002158
0.005937
0.006590
-0.002532
-0.001523
-0.003759
-0.001206
-0.002908
-0.002651
-0.001186
-0.003561
-0.001305
-0.002473
-0.002829
-0.000969
-0.002037
-0.001622
-0.002116
-0.002928
-0.001048
-0.002947
-0.001859
-0.001721
-0.003046
-0.001384
-0.002611
-0.002136
-0.001483
-0.002967
-0.001364
-0.002413
-0.002492
-0.001483
-0.002868
-0.001523
-0.002136
-0.002670
-0.001463
-0.002710
-0.001780
-0.002037
-0.002750
-0.001681
-0.002651
-0.002275
-0.001918
-0.002789
-0.001641
-0.002453
-0.002176
-0.001879
-0.002571
-0.001958
-0.002433
-0.002571
-0.002077
-0.002848
-0.002275
-0.002453
-0.002809
-0.002077
-0.002769
-0.002354
-0.002433
-0.002908
-0.002453
-0.002868
-0.002532
-0.002512
-0.003125
-0.002413
-0.003007
-0.003066
-0.002651
-0.003224
-0.002750
-0.003007
-0.003125
-0.002947
-0.003284
-0.003046
-0.006509
0.006056
-0.001246
0.005818
0.006135
0.007065
0.004156
0.006768
0.005996
0.003384
-0.003125
0.005225
0.006511
0.006214
0.005126
0.006016
-0.006232
-0.009912
0.005680
0.004908
0.006273
0.005007
0.009063
0.005719
-0.002611
-0.007498
-0.005045
-0.005025
0.005502
0.004809
0.005957
0.004690
0.005284
0.005165
0.004651
-0.003027
0.003800
-0.005183
-0.011317
0.004908
-0.003699
0.003780
0.003800
0.005996
0.003008
0.006056
0.014702
0.002197
0.005185
0.005383
0.005818
0.003938
-0.005935
-0.011080
0.002217
0.005680
0.004235
-0.006648
-0.010229
-0.007657
-0.004966
-0.004609
-0.007479
-0.003996
-0.007281
-0.005619
0.003839
0.002474
-0.004135
-0.007202
0.001643
-0.004669
-0.007855
0.004769
0.003622
-0.003937
0.004888
0.002474
0.004532
0.003503
0.003582
-0.005025
-0.007399
-0.005896
-0.005935
-0.000276
0.006728
0.001861
0.003206
0.004156
0.002415
0.004215
0.003088
0.003008
0.004037
0.002474
0.003820
-0.004075
-0.007261
0.003741
0.002811
0.003464
-0.006291
-0.007162
-0.006371
0.003008
0.001010
0.002929
0.002632
0.003820
0.003107
-0.000929
0.003622
0.002830
-0.005836
0.002791
0.003384
0.004215
0.002435
0.004116
0.003068
0.003127
0.001683
0.002573
0.003958
0.003523
0.002949
0.004255
-0.004451
-0.006311
0.003543
0.003404
0.004394
0.003028
0.003919
0.003899
0.003206
0.004394
0.003384
-0.003620
-0.005797
-0.006489
-0.006113
0.003345
0.004176
0.004532
0.003167
0.004829
-0.004827
-0.002809
0.004611
0.003741
0.004611
0.004057
-0.002750
-0.004985
0.003701
0.002514
0.002672
0.002771
0.002731
0.003681
0.004987
0.004572
0.003978
0.004334
-0.003680
0.003107
-0.004768
-0.005876
-0.004926
0.002118
0.002177
-0.003066
0.004018
0.005165
0.005126
0.003345
-0.003877
0.001524
0.006016
-0.002294
-0.006232
-0.001998
-0.005203
-0.004253
-0.004234
0.000001
0.005759
0.005106
0.001010
-0.003402
-0.002967
0.005521
0.006135
-0.004966
0.006036
-0.004234
-0.004352
-0.003996
-0.004273
-0.004055
-0.004174
-0.004253
-0.003759
-0.004194
-0.003957
-0.003858
-0.004055
-0.003917
-0.004055
-0.003858
-0.003680
-0.003996
-0.003620
-0.003858
-0.004708
-0.004748
-0.003897
-0.003402
-0.002176
-0.003640
-0.003383
-0.003798
-0.003304
-0.003521
-0.003521
-0.003264
0.004591
-0.002928
-0.003561
-0.003739
-0.002987
0.004512
-0.002868
-0.003442
0.007599
-0.002116
-0.003976
-0.002908
-0.002433
-0.004530
-0.002473
-0.003917
-0.003778
-0.002670
-0.005520
0.007045
0.006511
0.000179
0.006807
-0.003699
0.006451
-0.008982
0.012803
-0.005539
-0.003323
0.005442
0.007817
0.005482
0.006728
0.007065
0.005225
-0.002294
0.005442
0.006273
0.007421
0.004829
0.007718
0.005937
0.005937
-0.002116
-0.004985
0.007441
0.006709
0.005521
-0.002057
-0.004352
0.006333
0.007362
0.005264
0.004789
-0.003660
-0.003937
-0.002492
-0.004392
-0.002848
-0.003363
-0.004174
-0.002473
-0.004055
-0.003086
-0.003086
-0.004036
0.002118
-0.003838
0.010013
0.004018
-0.003739
-0.008527
0.006352
0.006174
0.007243
0.005897
-0.002868
-0.003699
0.004671
-0.000078
0.006887
-0.001760
-0.003244
-0.002195
-0.002255
-0.004471
-0.003660
-0.006410
-0.004985
-0.002492
-0.002473
-0.003937
-0.000771
-0.004649
-0.002809
-0.003798
-0.003778
-0.002116
-0.003798
-0.001602
-0.006311
-0.004332
-0.002730
-0.001760
-0.003680
-0.003185
-0.004669
-0.002848
-0.004115
0.000515
0.006709
0.005383
0.006075
0.005917
0.005897
0.006709
0.005521
0.006412
0.006075
0.005581
0.006392
-0.004234
-0.003818
-0.003897
-0.004352
-0.003501
-0.004135
-0.004115
0.005165
-0.003917
-0.003818
-0.005342
0.005600
0.006530
-0.004590
-0.004253
-0.004253
-0.003877
-0.004511
-0.003917
-0.004332
-0.004431
-0.003917
-0.004590
-0.003383
0.005403
-0.003976
0.004967
0.005323
-0.003719
-0.000810
-0.004115
-0.004214
-0.005282
-0.003818
-0.005262
0.002632
0.005878
0.004631
0.005897
0.005086
0.004928
0.005818
-0.002888
0.005284
-0.004649
-0.004095
-0.004827
-0.004906
-0.005203
0.002929
0.004809
-0.004807
-0.005836
0.004492
0.005225
0.004334
0.004809
0.004948
0.004176
0.005066
0.004354
0.004433
0.004809
-0.005737
0.004275
0.002613
-0.005282
-0.005915
-0.005539
0.002969
-0.004570
-0.004412
0.000693
0.003345
0.003899
0.004116
0.004453
-0.006014
0.003998
0.004116
0.004077
0.004097
0.003800
0.003879
-0.005698
0.001801
0.004018
0.004433
-0.006272
0.003978
0.003978
0.004057
-0.005381
-0.006093
-0.005955
-0.005777
-0.006093
0.003780
0.004116
-0.001839
0.002257
0.003681
-0.004530
-0.006133
-0.005500
0.008193
-0.003442
0.003938
0.003622
0.004789
0.003464
-0.005203
-0.005836
-0.006371
0.011299
0.003780
0.004433
0.004057
0.004215
-0.005262
-0.005302
0.004255
0.004591
0.003919
0.004572
0.004156
0.004334
0.004651
0.003998
-0.004807
-0.005401
0.003642
0.003919
-0.000395
-0.005183
-0.005243
-0.007578
0.008331
0.002514
0.004789
0.004809
0.004888
0.008984
-0.003937
-0.006034
0.004453
0.005482
0.004730
0.005086
0.005422
0.004769
0.005561
0.005066
0.005205
0.005680
0.004948
0.005699
0.005521
0.005383
0.004037
-0.003007
0.005541
0.005739
0.005699
0.005976
0.009736
-0.003759
-0.003798
-0.008646
-0.002947
-0.003600
-0.003561
-0.003739
-0.008310
-0.003719
-0.001998
-0.001918
-0.003145
-0.002374
-0.003027
-0.003304
-0.002789
-0.003007
-0.002967
-0.002532
0.008984
0.000238
-0.003897
-0.003205
-0.001938
-0.001087
-0.002156
-0.008072
0.006234
-0.001186
-0.002730
-0.002591
-0.001364
-0.003343
-0.001404
-0.002195
-0.002809
-0.001048
-0.002908
-0.001384
-0.001721
-0.002512
-0.000909
-0.002354
-0.001345
-0.001246
-0.002354
-0.004332
-0.002195
-0.001701
-0.000830
-0.003402
-0.000098
0.000001
-0.000454
-0.000514
-0.002215
-0.000929
-0.001285
-0.001661
-0.000692
-0.001879
-0.001087
-0.001167
-0.001701
-0.000672
-0.001582
-0.001127
-0.000989
-0.001780
0.000357
-0.001364
-0.001246
-0.000810
-0.001602
-0.000118
-0.000771
-0.001127
-0.000791
-0.001543
-0.000870
-0.001147
-0.001325
-0.000711
-0.001523
-0.001008
-0.001008
-0.001384
-0.000929
-0.001305
-0.001226
-0.000989
-0.001483
-0.001008
-0.001364
-0.001364
-0.001167
-0.001582
-0.001206
-0.001661
-0.001503
-0.001167
-0.001641
-0.001325
-0.001444
-0.001760
-0.001384
-0.001503
-0.001543
-0.001641
-0.001740
-0.001463
-0.001800
-0.001740
-0.001622
-0.001978
-0.001780
-0.001879
-0.001879
-0.001839
-0.001978
-0.001958
-0.001998
0.005106
-0.005777
-0.003007
-0.002453
-0.001820
-0.002750
-0.001820
-0.002473
-0.002631
-0.001918
-0.003125
-0.002176
0.007223
-0.001483
0.007421
0.011141
-0.004332
-0.000989
-0.001562
-0.002215
-0.003086
-0.000217
0.003384
0.004769
0.007896
0.005779
0.007480
0.006689
0.006293
0.007579
0.005838
0.007183
-0.002829
0.005699
0.007599
0.005976
0.006194
-0.004293
0.005363
0.005858
0.006669
0.005640
0.006827
-0.004273
-0.003284
-0.002947
-0.004135
-0.001543
0.005680
0.004651
0.007025
0.003345
-0.002374
-0.004174
-0.003620
-0.002848
-0.004590
-0.002710
-0.003937
-0.004055
-0.002750
-0.006410
-0.003106
-0.000078
-0.003996
-0.002947
-0.004807
0.006313
0.006432
0.005660
0.005779
0.005620
0.000179
0.003206
-0.003383
-0.009972
0.005145
0.006313
0.006273
-0.004511
-0.003066
0.005106
0.007995
0.009934
0.002989
0.001129
-0.004708
-0.003957
-0.003541
-0.004748
-0.003363
-0.004273
-0.003363
-0.003363
-0.004629
0.004018
0.005759
0.004710
-0.003383
-0.004590
-0.003838
-0.003858
-0.004689
0.004176
-0.004154
-0.004174
-0.002987
0.005383
0.006075
0.005838
0.006253
-0.003680
-0.009556
0.005363
0.006174
0.005264
-0.003818
-0.004293
-0.004689
-0.005203
-0.004788
0.005699
0.006036
-0.000355
0.005640
0.005600
-0.004154
-0.004372
-0.004511
-0.003996
-0.004570
-0.004313
-0.003442
-0.002928
-0.002314
-0.004609
-0.004392
-0.004214
-0.004511
-0.004115
-0.004491
-0.004570
-0.004313
-0.004728
-0.004293
-0.004590
-0.004689
-0.004491
-0.004847
-0.003422
-0.007043
0.004057
0.005363
0.004987
0.004591
0.005225
0.004176
0.005165
-0.004570
0.004196
0.005244
0.004750
0.004374
0.005422
0.004196
0.004769
-0.004847
-0.005797
0.004671
0.002118
-0.005342
0.004473
0.004354
-0.004689
-0.005836
0.004275
0.004730
0.003938
0.004671
0.004255
0.004077
0.004651
0.003859
0.004354
0.004215
0.003028
-0.005084
0.004176
-0.005797
-0.005500
-0.006371
0.004750
-0.004491
0.004077
-0.011337
0.003127
0.004473
0.004532
0.003206
-0.004748
-0.007815
0.003760
0.004809
0.002890
0.004730
0.003899
0.003582
-0.004788
-0.006885
0.004156
0.004255
0.000416
0.004591
0.003464
0.013594
-0.007122
-0.006984
-0.005757
-0.005500
-0.007419
0.004809
0.003503
0.004077
-0.005441
-0.006568
-0.005322
0.003523
-0.005737
0.004413
0.003246
0.004730
0.003622
0.003958
0.004532
0.003384
0.004750
0.003325
-0.005935
0.004413
0.002613
0.004730
0.003780
0.004314
0.004572
-0.005678
0.004433
0.004255
0.004572
0.004413
-0.003185
-0.005262
-0.005520
-0.005302
-0.005619
-0.004867
0.004750
-0.005203
-0.005282
0.004255
0.005343
-0.005084
-0.000039
0.003602
0.003642
0.004987
0.004057
-0.004867
0.002811
0.004967
0.005185
0.005126
0.005323
0.005304
0.005304
0.005323
0.005304
-0.003422
0.004730
0.005561
0.005858
0.005225
0.005957
0.005600
-0.004016
-0.003778
-0.004253
-0.003482
-0.004135
-0.003838
0.003899
-0.003699
0.003464
0.004710
0.006451
0.005581
0.007441
-0.001463
-0.003660
-0.003066
-0.003165
-0.003482
-0.002809
-0.003304
-0.003185
-0.002769
-0.003264
-0.009279
0.011754
0.006155
-0.001048
-0.003541
-0.001800
-0.003086
-0.002571
-0.001918
-0.003462
-0.001859
-0.002591
-0.002651
-0.001760
-0.003145
-0.001958
-0.002235
-0.002710
-0.001641
-0.002868
-0.002057
-0.001998
-0.002710
-0.001582
-0.002492
-0.001978
-0.001780
-0.002631
-0.001582
-0.002294
-0.002136
-0.001543
-0.002413
-0.001701
-0.002077
-0.002275
-0.001562
-0.002354
-0.001800
-0.001899
-0.002215
-0.001523
-0.002215
-0.001800
-0.001780
-0.002393
-0.001602
-0.002195
-0.002017
-0.001879
-0.002393
-0.001721
-0.002116
-0.002255
-0.001918
-0.002314
-0.001958
-0.001958
-0.002176
-0.001879
-0.002334
-0.002037
-0.001918
-0.002294
-0.001938
-0.002354
-0.002017
-0.002136
-0.002512
-0.002116
-0.002334
-0.002374
-0.002116
-0.002690
-0.002275
-0.002433
-0.002374
-0.002314
-0.002690
-0.002571
-0.002512
-0.002710
-0.002374
-0.002809
-0.008448
0.009558
0.005699
-0.000118
-0.003541
-0.002354
-0.003521
-0.003185
-0.002789
-0.003561
-0.002829
-0.003383
-0.003501
-0.002769
-0.003877
0.006669
0.001050
0.006115
0.010804
0.006590
-0.003125
-0.003442
-0.003937
0.005897
-0.007162
0.005462
0.006095
0.006273
0.005323
0.006570
0.005422
0.005759
0.006075
0.014722
0.006016
0.005323
0.005205
0.006432
0.004453
0.006075
0.005521
0.004908
0.007797
0.004789
0.012467
0.005917
-0.005025
0.005620
0.005264
0.005363
0.005541
-0.004550
-0.004609
-0.004748
-0.004530
-0.004728
-0.004629
-0.004570
-0.004827
-0.004590
-0.004768
-0.004728
-0.000118
0.001564
0.002771
0.001109
0.002296
-0.004511
-0.004867
0.004829
0.005422
0.005007
0.000416
-0.004293
-0.005104
-0.004530
0.003305
0.003424
-0.004431
-0.007597
0.005145
0.005165
0.004928
0.005323
0.004987
0.005046
0.005145
0.004868
0.005264
0.009776
-0.004590
-0.007578
-0.004313
-0.004431
-0.005223
-0.004946
-0.004649
-0.005441
-0.004135
-0.005124
-0.004194
-0.004075
-0.004095
0.004334
0.005046
0.004196
-0.003719
-0.000771
0.003760
-0.004293
-0.009774
0.002969
0.002870
0.007619
0.004433
0.004888
0.005007
0.004789
0.002257
0.005304
-0.004609
-0.005361
-0.002492
0.003048
0.004849
0.005304
0.004611
0.005264
0.005027
0.003701
-0.002413
-0.005361
-0.003778
0.002731
0.005976
-0.001285
-0.003877
-0.004867
-0.004570
-0.005441
-0.004451
-0.005025
-0.005084
-0.004570
-0.005421
-0.004590
-0.005005
-0.005203
-0.002829
-0.001661
-0.004728
-0.003284
-0.007320
-0.003917
-0.005381
-0.004194
0.001010
0.001327
-0.000296
-0.007320
-0.005005
-0.005183
-0.005401
-0.005005
-0.005559
-0.005322
-0.005243
-0.005539
-0.005084
0.001030
0.004235
0.004156
0.003998
0.004671
0.004176
0.002474
0.004255
0.003780
0.004532
0.004018
0.003958
0.004215
0.003879
0.004215
0.006293
0.004018
-0.005460
-0.006113
-0.005816
0.003602
0.003622
0.004196
0.003404
-0.005539
0.000713
0.002435
0.004275
0.003008
0.004097
0.003701
0.003365
0.004255
0.002890
0.003859
0.003622
0.003028
0.003998
0.003048
0.003503
-0.005915
-0.006984
-0.005975
-0.006549
-0.006687
0.003681
0.003008
0.003681
0.003305
0.003206
0.003562
0.002989
0.003008
-0.004728
0.002197
-0.006014
-0.007083
-0.002611
0.003741
0.002692
0.003365
0.003187
0.002830
0.003622
0.001069
0.003226
0.003226
0.002712
0.003582
0.002949
0.003107
0.003305
0.002731
0.003543
0.003127
-0.005579
-0.006608
-0.007023
-0.006212
0.001801
-0.001641
0.003266
0.002039
0.003859
0.008925
0.003523
-0.005480
-0.006944
-0.005638
-0.007162
0.003008
-0.006252
0.002989
0.003206
0.003741
-0.007202
-0.005500
0.002355
-0.003125
-0.006054
0.002197
0.004690
0.002712
0.003602
-0.003600
0.002276
0.004769
0.003424
0.003048
0.005046
0.002514
-0.005223
-0.006153
-0.006826
0.005046
0.002909
0.004591
-0.010921
0.002731
0.005343
0.003642
0.003780
0.005225
0.002989
0.005165
0.004354
0.003642
0.004314
0.003483
0.005066
0.004888
-0.003383
0.006788
0.004057
0.002336
-0.004887
-0.007261
-0.004392
-0.008428
0.004235
0.005680
0.004769
-0.004412
0.005027
0.005066
-0.003858
-0.005480
-0.004115
-0.003205
0.000218
0.006313
0.005046
0.005739
0.006155
0.005106
0.006372
0.005581
0.005917
0.011972
0.005660
0.003345
-0.003462
0.005858
-0.003046
-0.004174
0.004176
-0.002116
-0.008132
0.006214
0.001247
-0.003541
-0.005777
-0.003304
-0.003244
-0.003046
-0.003996
-0.002789
-0.003007
-0.003086
-0.002591
-0.003125
-0.002789
-0.002670
-0.002888
-0.002354
-0.002651
-0.002492
-0.002314
-0.002571
-0.002195
-0.002453
-0.002393
-0.002116
-0.002235
-0.002057
-0.002156
-0.002136
-0.001899
-0.002156
-0.001760
-0.001839
-0.001899
-0.001582
-0.001978
-0.001839
-0.001701
-0.001800
-0.001641
-0.001701
-0.001681
-0.001404
-0.001641
-0.001345
-0.001602
-0.001602
-0.001305
-0.001602
-0.001246
-0.001503
-0.001384
-0.001186
-0.001285
-0.001167
-0.001186
-0.001107
