0.000665
0.001241
0.001241
0.000665
0.000665
0.001818
0.003547
0.002971
0.005853
0.006429
-0.004523
-0.009135
-0.008559
-0.006829
-0.004523
-0.002218
-0.002218
-0.001641
-0.001065
-0.001641
-0.001065
-0.001065
0.000088
0.000088
0.002394
0.008735
0.020264
0.013347
-0.040840
-0.086957
-0.035076
0.013923
0.039288
0.030641
0.023147
0.012770
0.011041
0.008735
0.006429
0.006429
0.004700
0.004124
0.004124
0.002971
0.004700
0.002971
0.002394
0.000665
0.000088
0.001241
0.000665
-0.001065
-0.001065
-0.001641
-0.001065
-0.002218
-0.002218
-0.002794
-0.004523
-0.003947
-0.002794
-0.003947
-0.001641
-0.001065
-0.001065
0.000088
-0.000488
0.001241
0.000665
0.001818
0.002394
-0.000488
0.002394
0.001818
0.001818
0.002394
0.000665
0.000665
0.001241
0.000665
0.000088
0.001241
0.000088
0.000665
0.000088
-0.000488
0.000088
0.000088
0.000665
0.000088
0.000665
0.001241
0.002394
0.004700
0.004700
0.005853
-0.005100
-0.009711
-0.007982
-0.006829
-0.004523
-0.004523
-0.003947
-0.003370
-0.001641
-0.002794
-0.001641
-0.001065
-0.001065
0.000665
0.001241
0.009312
0.019688
0.015076
-0.048911
-0.096757
-0.052370
0.007582
0.035829
0.029488
0.016229
0.009888
0.008735
0.006429
0.005276
0.006429
0.003547
0.006429
0.005276
0.002971
0.004124
0.004124
0.002971
0.002971
0.002971
0.003547
0.002971
0.002394
0.003547
0.002394
0.004124
0.003547
0.002971
0.004700
0.002394
0.001241
0.001241
-0.000488
0.000665
-0.000488
0.000088
-0.000488
0.001241
0.001818
0.000088
0.001241
0.001241
0.000665
0.002394
0.001241
0.000665
0.000665
0.001818
0.001241
0.000088
0.000665
0.001241
0.001241
0.000088
0.000088
0.000088
0.000088
-0.001641
-0.001065
0.000088
-0.000488
-0.001065
-0.001065
0.000088
0.001818
0.003547
0.006429
-0.002218
-0.010864
-0.013170
-0.009711
-0.006829
-0.007406
-0.003947
-0.005100
-0.005100
-0.005100
-0.003370
-0.004523
-0.002794
-0.003370
-0.002218
0.005853
0.014500
0.013923
-0.037958
-0.099639
-0.064475
-0.003947
0.030064
0.024876
0.014500
0.007006
0.007006
0.005276
0.004124
0.004700
0.004124
0.002394
0.002971
0.001241
0.001818
0.000088
0.001241
0.001241
-0.000488
0.002394
0.001241
0.002394
0.002971
0.002394
0.004700
0.003547
0.004124
0.004124
0.002971
0.001818
0.001818
0.000088
0.001241
-0.000488
-0.001641
-0.000488
0.000088
0.000665
0.001241
0.001241
0.001818
0.001241
0.002394
0.000665
0.001818
0.002971
0.001818
0.002394
0.002394
0.002971
0.001818
0.001818
0.000088
0.000665
0.000665
0.000088
0.000665
0.000665
0.000665
-0.000488
0.000665
0.002971
0.004124
0.005276
0.008159
0.001818
-0.008559
-0.007982
-0.006253
-0.003370
-0.002794
-0.000488
-0.001065
-0.001641
-0.001641
-0.000488
-0.001641
-0.001641
-0.001641
-0.001065
0.005853
0.012194
0.018535
-0.024699
-0.094451
-0.062169
0.002394
0.036982
0.032947
0.017959
0.008159
0.005853
0.004700
0.000665
0.001818
0.001241
0.000665
0.001818
0.000665
0.002394
0.001241
0.000665
0.002394
-0.000488
0.002394
0.002394
0.001818
0.004700
0.003547
0.003547
0.002971
0.002971
0.002971
0.000088
0.000088
0.000665
-0.001065
-0.000488
-0.000488
0.000665
0.002394
0.000665
0.003547
0.001818
0.002971
0.002971
0.002971
0.002971
0.002971
0.003547
0.004700
0.001818
0.002971
0.000665
0.000088
0.001818
0.001241
0.000088
0.001818
0.001818
0.000665
0.000665
0.002394
0.004700
0.005853
0.007582
0.003547
-0.008559
-0.010288
-0.007406
-0.004523
-0.002794
-0.002794
-0.001641
-0.002794
-0.003370
-0.001641
-0.001641
-0.001065
-0.001065
-0.001065
0.004700
0.012194
0.020841
-0.013747
-0.085228
-0.069663
-0.005100
0.030064
0.036405
0.026606
0.011618
0.008159
0.008159
0.004124
0.005853
0.004700
0.002971
0.003547
0.001818
0.000665
0.001818
0.000088
0.000665
0.000665
0.001241
0.000665
-0.000488
-0.000488
-0.001065
-0.001641
0.000665
-0.000488
0.000665
-0.001641
-0.001641
-0.002794
-0.002218
-0.002218
-0.001065
-0.002794
-0.000488
-0.001065
-0.000488
0.000088
0.000088
0.001241
0.000088
-0.001065
0.001241
0.000088
0.001241
0.001241
-0.000488
0.000665
0.000088
0.001241
-0.000488
-0.000488
0.000665
0.000088
0.000665
0.001241
0.000665
0.001818
0.001818
0.005853
0.007006
0.008735
0.008159
-0.004523
-0.007982
-0.005676
-0.004523
-0.001065
-0.000488
-0.001641
-0.001641
-0.001641
-0.000488
0.000665
0.001241
0.002971
0.008735
0.016229
0.026606
0.034676
-0.004523
-0.079463
-0.105981
-0.066781
-0.029311
-0.003370
0.004700
0.006429
0.007582
0.009312
0.008735
0.008735
0.008159
0.009312
0.008735
0.009312
0.010465
0.012194
0.012770
0.013347
0.015076
0.015076
0.017959
0.019112
0.018535
0.019688
0.019112
0.017959
0.016806
0.015653
0.011041
0.008735
0.004700
0.002394
0.000088
-0.001641
-0.003947
-0.003370
-0.003370
-0.002794
-0.002794
-0.002794
-0.001641
-0.001065
-0.001641
-0.002218
-0.003370
-0.003370
-0.003370
-0.002218
-0.001641
-0.002218
-0.001641
-0.002794
-0.003370
-0.001641
-0.001641
-0.002794
-0.002794
-0.002218
-0.001065
0.001818
0.002971
0.006429
0.000088
-0.011441
-0.011441
-0.009711
-0.005676
-0.004523
-0.002794
-0.003947
-0.003947
-0.003947
-0.002794
-0.002218
-0.002218
-0.002218
-0.001065
0.006429
0.016806
0.020841
-0.027582
-0.099063
-0.074275
-0.006253
0.032370
0.029488
0.020841
0.011618
0.009888
0.008735
0.005853
0.005853
0.004700
0.005853
0.004700
0.003547
0.003547
0.003547
0.002394
0.004700
0.002971
0.004124
0.003547
0.003547
0.005276
0.004124
0.004124
0.005276
0.003547
0.004700
0.003547
0.001818
0.001241
0.000665
0.001241
0.000665
0.000665
0.001241
-0.000488
0.001818
0.001818
0.002394
0.002394
0.002971
0.003547
0.003547
0.001818
0.003547
0.001818
0.001818
0.002394
0.002971
0.002394
0.001818
0.002394
0.001818
0.001818
0.002394
0.001818
0.002971
0.005853
0.007006
0.008159
0.007006
-0.004523
-0.007982
-0.006829
-0.003370
-0.001641
0.000088
-0.000488
0.001241
0.003547
0.006429
0.009312
0.010465
0.003547
-0.004523
-0.007982
-0.033346
-0.061017
-0.109439
-0.186109
-0.192450
-0.093298
-0.025852
0.001241
0.008735
0.013347
0.013347
0.019112
0.017959
0.020264
0.023147
0.023147
0.026029
0.027758
0.031217
0.035829
0.036982
0.041017
0.044476
0.046205
0.049088
0.049664
0.050817
0.049664
0.047935
0.045629
0.041017
0.036405
0.030641
0.022570
0.017382
0.008735
0.004700
0.001818
-0.001065
-0.003370
-0.002794
-0.002794
-0.001065
-0.002794
-0.003370
-0.002794
-0.002218
-0.001065
-0.002218
-0.001065
-0.001065
-0.002218
-0.001065
-0.001065
-0.001641
-0.002794
-0.002218
-0.001641
-0.002218
-0.000488
0.000088
-0.000488
0.001241
0.002394
0.004124
0.006429
0.002971
-0.009135
-0.010288
-0.007406
-0.003370
-0.002218
0.000088
-0.001065
-0.001641
-0.001641
0.000088
0.001241
0.001241
-0.000488
0.001818
0.007006
0.014500
0.024876
-0.007406
-0.083499
-0.082346
-0.020088
0.025453
0.034100
0.026029
0.012770
0.009312
0.009888
0.006429
0.006429
0.005853
0.005853
0.006429
0.004124
0.004700
0.004124
0.001818
0.002971
0.002394
0.001818
0.002394
0.000665
0.001241
0.001241
0.001818
0.003547
0.002394
0.003547
0.004124
0.002394
0.001241
-0.001065
0.000088
-0.001641
-0.001641
-0.001641
-0.001065
0.000088
-0.000488
-0.000488
-0.000488
-0.000488
-0.002218
0.000088
-0.002218
-0.000488
-0.000488
-0.001641
-0.002218
-0.000488
-0.001641
-0.002218
-0.001641
-0.002218
-0.002794
-0.001065
-0.002218
-0.003370
-0.002218
-0.002218
0.000665
0.002971
0.005853
0.001818
-0.010288
-0.012594
-0.006253
-0.001065
0.001241
0.007006
-0.002794
-0.010288
-0.018358
-0.053523
-0.082346
-0.114051
-0.148639
-0.178038
-0.189567
-0.205708
-0.217814
-0.198214
-0.160744
-0.063899
-0.002794
0.017382
0.025453
0.030641
0.035252
0.039864
0.043899
0.048511
0.053123
0.057734
0.062346
0.070993
0.076181
0.081946
0.085981
0.090016
0.095204
0.096934
0.099240
0.099240
0.097510
0.094052
0.087134
0.079640
0.070417
0.059464
0.048511
0.039864
0.027182
0.019112
0.011041
0.005853
0.002394
-0.001065
-0.002218
-0.003370
-0.003370
-0.003947
-0.005100
-0.004523
-0.005100
-0.003947
-0.003947
-0.005100
-0.003370
-0.004523
-0.005100
-0.005100
-0.005100
-0.003947
-0.004523
-0.004523
-0.005100
-0.005100
-0.003370
-0.004523
-0.005100
-0.005100
-0.004523
-0.001641
-0.000488
0.000088
0.002971
-0.007406
-0.012594
-0.012594
-0.009711
-0.008559
-0.005676
-0.006253
-0.006253
-0.006253
-0.005100
-0.005676
-0.002218
-0.002218
-0.003370
-0.002218
0.005853
0.016229
0.014500
-0.037958
-0.097334
-0.052370
0.001241
0.030641
0.027182
0.019112
0.005853
0.005853
0.002971
0.000088
0.000088
-0.001065
-0.001641
0.000088
-0.002794
-0.001065
-0.000488
-0.002794
-0.002794
-0.003370
-0.002794
-0.003370
-0.003370
-0.003947
-0.003947
-0.002794
-0.002218
-0.002218
-0.002218
-0.004523
-0.003947
-0.003947
-0.005100
-0.002794
-0.002794
-0.002794
-0.001641
-0.001641
0.000088
-0.000488
0.001241
0.001818
0.000088
0.000088
0.000665
0.000665
0.001241
-0.000488
0.000665
0.000088
-0.000488
0.001818
0.000665
0.000088
0.000088
-0.000488
0.000088
0.000088
0.000088
0.002394
0.003547
0.004700
0.008735
0.001241
-0.003370
-0.001065
0.004124
0.004700
-0.005100
-0.010288
-0.024699
-0.058711
-0.085228
-0.114627
-0.151521
-0.175156
-0.181497
-0.199944
-0.202826
-0.182650
-0.137686
-0.048334
0.007582
0.023723
0.030064
0.037558
0.039864
0.042746
0.049664
0.053123
0.058311
0.061770
0.070417
0.074452
0.081369
0.086558
0.091746
0.095204
0.098663
0.101546
0.102698
0.099816
0.097510
0.093475
0.084252
0.076758
0.065805
0.056582
0.046782
0.036405
0.024300
0.016229
0.008735
0.004700
0.001241
-0.002218
-0.003947
-0.003370
-0.005100
-0.003370
-0.005100
-0.005100
-0.004523
-0.005100
-0.006253
-0.006253
-0.006253
-0.006253
-0.006253
-0.006253
-0.006829
-0.006253
-0.005676
-0.007406
-0.006253
-0.006253
-0.006829
-0.005676
-0.006253
-0.006829
-0.006829
-0.006253
-0.006253
-0.006253
-0.005676
-0.003370
-0.001641
-0.001641
0.001818
-0.006829
-0.014323
-0.014323
-0.012017
-0.009135
-0.007982
-0.006829
-0.007406
-0.007982
-0.007406
-0.006829
-0.004523
-0.005100
-0.003947
-0.002218
0.006429
0.016806
0.016806
-0.031617
-0.096757
-0.062169
-0.003370
0.030064
0.028911
0.020264
0.008735
0.007006
0.006429
0.004124
0.005276
0.003547
0.003547
0.002971
0.002971
0.004124
0.002971
0.002971
0.002971
0.000665
0.001241
0.002394
0.001241
0.003547
0.002971
0.003547
0.004700
0.004700
0.004124
0.002971
0.002394
0.001241
-0.001065
0.000665
0.000088
-0.000488
0.000088
0.000088
0.001818
0.002971
0.002971
0.002394
0.002971
0.003547
0.003547
0.004124
0.003547
0.002394
0.000665
0.002394
0.002394
0.002394
0.002394
0.001241
0.000665
-0.000488
0.001241
0.000665
0.000088
0.002394
0.004700
0.004700
0.008159
0.010465
0.000665
-0.001065
-0.000488
-0.009711
-0.014900
-0.028735
-0.061593
-0.085804
-0.114051
-0.152097
-0.172850
-0.180921
-0.200520
-0.203403
-0.179191
-0.117510
-0.033346
0.010465
0.022570
0.029488
0.035252
0.039288
0.045052
0.047935
0.049088
0.057158
0.062346
0.067534
0.072722
0.077911
0.083099
0.087710
0.091169
0.094628
0.095781
0.096934
0.096357
0.092322
0.088863
0.081369
0.072146
0.061770
0.052546
0.043323
0.031794
0.021417
0.014500
0.007006
0.001818
-0.001065
-0.002794
-0.004523
-0.005676
-0.005100
-0.005100
-0.005100
-0.004523
-0.005100
-0.006253
-0.005676
-0.005676
-0.005676
-0.004523
-0.005676
-0.006253
-0.006829
-0.004523
-0.005676
-0.006253
-0.005676
-0.006253
-0.005100
-0.005676
-0.005676
-0.005676
-0.006829
-0.005100
-0.005676
-0.005676
-0.005676
-0.004523
-0.001065
-0.002218
0.000088
0.000088
-0.009711
-0.013747
-0.012594
-0.010288
-0.009135
-0.007406
-0.007406
-0.007406
-0.006829
-0.006253
-0.006829
-0.004523
-0.004523
-0.003947
-0.001641
0.007582
0.019688
0.010465
-0.053523
-0.099063
-0.050064
0.005276
0.031794
0.025453
0.015076
0.008735
0.007582
0.003547
0.004124
0.003547
0.002971
0.004124
0.003547
0.001241
0.002971
0.000088
0.001241
0.001241
0.000088
0.001241
-0.000488
0.000665
0.001818
0.001241
0.002394
0.003547
0.003547
0.002971
0.000665
0.000088
-0.000488
-0.002218
-0.001641
-0.003947
-0.003370
-0.002794
-0.003947
-0.001065
-0.000488
-0.000488
-0.001641
-0.002218
-0.002218
-0.002218
-0.001641
-0.002218
-0.002218
-0.002794
-0.002218
-0.002794
-0.002218
-0.002794
-0.002794
-0.002794
-0.003370
-0.002218
-0.003370
-0.002218
-0.001641
0.001241
0.002394
0.004700
0.002971
-0.007982
-0.006253
-0.001065
0.004124
0.001241
-0.009135
-0.013170
-0.035076
-0.067934
-0.095604
-0.129039
-0.168238
-0.186109
-0.192450
-0.211473
-0.202250
-0.175156
-0.105404
-0.023547
0.014500
0.026606
0.032947
0.037558
0.041017
0.046782
0.050817
0.054852
0.059464
0.063499
0.070993
0.077334
0.083675
0.089440
0.093475
0.098087
0.102698
0.103851
0.103851
0.100969
0.098087
0.091746
0.086558
0.079064
0.068687
0.058311
0.046782
0.034676
0.025453
0.016806
0.012194
0.006429
0.001241
0.000088
-0.001065
-0.000488
-0.001065
0.000088
0.000088
-0.002218
-0.001641
-0.001065
-0.001641
-0.001641
-0.001641
-0.000488
-0.001065
0.001241
-0.002218
-0.002218
-0.003370
-0.004523
-0.002794
-0.003947
-0.002794
-0.007406
-0.001065
0.008159
0.001818
0.001818
-0.007982
-0.016629
-0.018358
-0.022394
-0.018935
-0.014900
-0.017205
-0.028158
-0.035076
-0.034499
-0.035652
-0.031617
-0.031041
-0.029311
-0.028735
-0.028158
-0.024123
-0.024123
-0.023547
-0.022394
-0.022970
-0.013170
-0.003947
0.013347
-0.014323
-0.093298
-0.089840
-0.031041
0.007006
0.020264
0.016806
0.005853
0.002394
0.002971
0.002394
0.003547
0.004124
0.002394
0.004124
0.004124
0.004700
0.005276
0.002971
0.004124
0.002971
0.002971
0.004700
0.003547
0.005853
0.005276
0.006429
0.008735
0.008159
0.007582
0.008735
0.007582
0.008159
0.005853
0.005276
0.005276
0.004700
0.005276
0.005276
0.005276
0.006429
0.006429
0.007006
0.005853
0.005276
0.005276
0.004700
0.005276
0.005276
0.004124
0.003547
0.003547
0.002971
0.003547
0.002394
0.002971
0.001241
0.001818
0.001241
0.001241
0.001241
0.002394
0.003547
0.006429
0.009888
0.008735
-0.004523
-0.007982
-0.005100
-0.003370
-0.002218
0.001818
0.006429
0.009888
0.012194
0.009312
-0.003370
-0.006829
-0.027582
-0.062746
-0.089840
-0.121545
-0.162474
-0.193603
-0.205708
-0.176309
-0.073122
-0.011441
0.011041
0.016806
0.022570
0.023723
0.027182
0.030064
0.032370
0.036405
0.039288
0.043323
0.046782
0.053123
0.058887
0.063499
0.067534
0.072146
0.073875
0.077334
0.079064
0.078487
0.075028
0.071570
0.066958
0.058887
0.049664
0.042170
0.030064
0.021994
0.013923
0.008159
0.004700
0.001818
-0.001065
-0.002218
-0.002218
-0.002218
-0.003947
-0.002794
-0.001641
-0.002218
-0.001065
-0.001065
-0.001065
-0.001065
-0.001641
-0.001065
-0.002794
-0.001641
-0.001065
-0.002218
-0.001065
-0.002218
-0.003370
-0.002218
-0.002218
-0.001641
-0.001641
-0.000488
0.000665
0.001818
0.005853
0.003547
-0.009711
-0.012017
-0.010864
-0.008559
-0.007406
-0.006253
-0.004523
-0.005676
-0.005676
-0.004523
-0.004523
-0.005100
-0.004523
-0.003370
-0.001641
0.007006
0.019688
0.009888
-0.057558
-0.096181
-0.044299
0.008735
0.032947
0.025453
0.012770
0.007582
0.005276
0.002971
0.002971
0.001818
0.000088
0.001818
0.001241
0.000088
0.001818
-0.000488
-0.001065
-0.000488
-0.001641
0.000665
-0.001065
-0.000488
0.000088
-0.000488
0.000088
0.000088
0.000665
0.000665
-0.001641
-0.002218
-0.001641
-0.002218
-0.002218
-0.001641
-0.000488
-0.001641
-0.001065
0.001818
0.000665
0.001241
0.001818
0.001818
0.001818
0.002394
0.001241
0.002394
0.002971
0.002971
0.002394
0.001818
0.001818
0.000665
0.001241
0.000665
0.000088
0.001818
0.001818
0.002971
0.004700
0.005853
0.009888
0.005276
-0.006829
-0.007982
-0.009135
-0.003947
-0.002218
-0.000488
-0.001065
-0.001065
-0.000488
-0.001641
-0.000488
-0.000488
0.000088
0.002394
0.008159
0.020841
0.035252
0.011041
-0.063899
-0.073699
-0.027005
0.008159
0.007582
0.009312
0.009312
0.009888
0.008735
0.005853
0.008735
0.008159
0.008735
0.009312
0.007582
0.008159
0.007582
0.008159
0.008159
0.008735
0.008735
0.010465
0.009888
0.009888
0.010465
0.011041
0.009312
0.008735
0.008159
0.005853
0.002971
0.003547
-0.001065
-0.001065
-0.000488
-0.001065
-0.001641
-0.001641
-0.001641
0.000088
-0.000488
0.000665
-0.001641
-0.001641
0.000088
-0.000488
-0.000488
-0.002218
-0.001065
-0.001641
-0.001065
-0.002218
-0.001641
-0.001641
-0.002218
-0.002218
-0.002218
-0.002794
-0.002794
-0.002794
-0.003370
-0.000488
-0.001641
0.000665
0.001241
-0.007982
-0.014900
-0.012594
-0.010864
-0.007982
-0.006829
-0.005676
-0.006829
-0.007406
-0.006253
-0.006253
-0.006253
-0.005676
-0.005100
-0.003370
0.004700
0.017382
0.009888
-0.055252
-0.093875
-0.039111
0.007582
0.031217
0.024300
0.015076
0.005853
0.004700
0.002971
0.001818
0.003547
0.001241
0.001241
0.000088
-0.001065
0.001241
-0.001065
-0.001065
-0.000488
-0.001641
-0.000488
-0.001641
-0.001065
0.000088
-0.000488
0.000665
-0.000488
0.000088
0.000665
-0.002218
-0.001641
-0.003947
-0.003947
-0.001641
-0.002794
-0.001065
-0.001065
-0.001641
-0.000488
-0.000488
-0.001641
0.000088
0.000665
0.001241
0.001241
0.001241
0.001241
0.000665
0.001818
0.001818
0.001241
0.001241
0.000665
-0.001065
0.000665
0.001241
0.001818
0.002394
0.004124
0.005853
0.007006
0.006429
-0.005676
-0.010288
-0.007982
-0.003370
-0.001065
-0.000488
-0.001065
-0.002218
-0.002218
-0.001065
-0.001641
0.000665
0.000088
0.000665
0.005276
0.013347
0.025453
0.006429
-0.070240
-0.091569
-0.028735
0.021417
0.038711
0.030641
0.015076
0.011041
0.009888
0.007582
0.007006
0.006429
0.005853
0.006429
0.005276
0.004700
0.005276
0.002971
0.004700
0.004700
0.003547
0.005853
0.004700
0.004124
0.005853
0.004124
0.005853
0.004700
0.005276
0.004700
0.003547
0.004124
0.003547
0.003547
0.002971
0.001818
0.002971
0.002971
0.002394
0.002971
0.001818
0.002971
0.001818
0.001241
0.001241
0.001818
0.002971
0.001818
0.002394
0.002394
0.001818
0.002394
0.001818
0.001241
0.000665
0.000088
0.000665
0.001818
0.000665
0.000088
0.000665
0.002394
0.003547
0.004124
0.008159
0.004700
-0.007982
-0.009711
-0.009135
-0.006253
-0.003947
-0.002794
-0.002218
-0.003370
-0.003370
-0.002218
-0.001065
-0.001641
-0.001065
-0.001065
0.004124
0.012194
0.023723
-0.001641
-0.078887
-0.089840
-0.028735
0.021994
0.035829
0.024876
0.012770
0.009888
0.009888
0.006429
0.007006
0.006429
0.004700
0.005276
0.004124
0.004700
0.004700
0.001818
0.002394
0.001818
0.000088
0.001241
0.000088
0.001241
0.002394
0.001818
0.001241
-0.001641
-0.001065
-0.002794
-0.002794
-0.002794
-0.004523
-0.006253
-0.006253
-0.006829
-0.005676
-0.006253
-0.005100
-0.005100
-0.005676
-0.003947
-0.003370
-0.002218
-0.003370
-0.004523
-0.002218
-0.002794
-0.001641
-0.001641
-0.001641
0.000088
-0.001065
-0.001641
-0.000488
-0.001065
-0.002218
-0.002794
-0.001641
0.001818
0.001818
0.004700
0.001241
-0.008559
-0.012017
-0.010288
-0.006253
-0.003370
-0.003947
-0.002794
-0.002794
-0.003947
-0.002794
-0.003370
-0.002218
-0.002794
-0.001641
0.002971
0.009888
0.020841
-0.000488
-0.073122
-0.077157
-0.014323
0.021417
0.036405
0.027758
0.012770
0.008159
0.008159
0.006429
0.004700
0.004124
0.002394
0.004124
0.002394
0.002394
0.002971
-0.000488
0.001818
-0.000488
-0.001641
-0.000488
-0.002218
-0.001641
-0.002218
-0.002218
-0.001641
-0.002794
-0.003370
-0.001641
-0.003947
-0.002794
-0.003947
-0.002218
-0.001641
-0.001641
0.001241
0.000665
0.001241
0.001241
0.000665
0.002394
0.002971
0.003547
0.004124
0.004124
0.004124
0.002971
0.002971
0.002971
0.002971
0.003547
0.001818
0.001818
0.003547
0.001818
0.001241
0.001818
0.004124
0.007006
0.008159
0.006429
-0.002794
-0.010288
-0.007406
-0.004523
-0.002794
0.000665
0.001241
0.000665
-0.001065
0.000088
0.000088
0.001241
0.002971
0.001818
0.004124
0.011041
0.021994
0.012194
-0.044876
-0.078887
-0.024123
0.022570
0.043323
0.032947
0.021994
0.012194
0.010465
0.009312
0.005853
0.006429
0.005276
0.005853
0.005276
0.002971
0.004124
0.002394
0.004124
0.000665
0.000088
0.001241
-0.001641
-0.001641
-0.003947
-0.003370
-0.002794
-0.003370
-0.005100
-0.004523
-0.005676
-0.003947
-0.005676
-0.003947
-0.001641
-0.000488
-0.000488
0.000088
0.001241
0.001818
0.002394
0.003547
0.003547
0.001818
0.003547
0.001818
0.004124
0.003547
0.003547
0.003547
0.001241
0.000088
-0.001065
-0.002218
-0.002218
-0.002794
-0.001065
0.000665
-0.003947
-0.017782
-0.021241
-0.021241
-0.020088
-0.018935
-0.016053
-0.014900
-0.011441
-0.009135
-0.006253
-0.003370
-0.001065
-0.001065
0.000665
0.002971
0.008159
0.016806
0.009312
-0.041993
-0.066205
-0.009711
0.025453
0.042746
0.036982
0.020264
0.007582
0.006429
0.004124
0.002394
0.003547
0.001818
0.003547
0.003547
0.002971
0.004124
0.002394
0.001241
0.000088
-0.001065
-0.001641
-0.005676
-0.006253
-0.006829
-0.009711
-0.009711
-0.012017
-0.014323
-0.010864
-0.014900
-0.014323
-0.011441
-0.010288
-0.009135
-0.009135
-0.006829
-0.006253
-0.007406
-0.005676
-0.006253
-0.006253
-0.006829
-0.006253
-0.005676
-0.007406
-0.007406
-0.008559
-0.009711
-0.007982
-0.008559
-0.010864
-0.012594
-0.012017
-0.009135
-0.010288
-0.009135
-0.008559
-0.016629
-0.026429
-0.025276
-0.022394
-0.016629
-0.015476
-0.013747
-0.014900
-0.015476
-0.016053
-0.014900
-0.013747
-0.014323
-0.013170
-0.013747
-0.009135
-0.004523
0.005276
-0.023547
-0.083499
-0.070240
-0.008559
0.024300
0.033523
0.019112
0.003547
-0.005100
-0.006253
-0.007406
-0.004523
-0.004523
-0.006829
-0.002218
-0.004523
-0.003370
-0.003370
-0.003370
-0.003370
-0.003370
-0.001641
0.001241
0.000665
0.003547
0.004700
0.005276
0.009312
0.009888
0.010465
0.011618
0.011041
0.013347
0.013347
0.015653
0.017382
0.016806
0.020841
0.022570
0.030641
0.035252
0.038135
0.036982
0.035829
0.034676
0.034676
0.030064
0.030641
0.027758
0.024300
0.023147
0.020841
0.021994
0.020841
0.021994
0.022570
0.016229
0.004700
0.007582
0.008735
0.012194
0.015076
0.019112
0.020264
0.020841
0.022570
0.023147
0.023723
0.021994
0.022570
0.021417
0.022570
0.026606
0.034100
0.021417
-0.029888
-0.051793
0.001818
0.035252
0.054852
0.047358
0.031217
0.017959
0.015076
0.011041
0.009312
0.009888
0.008159
0.008159
0.007582
0.005853
0.004700
0.002394
0.001241
-0.000488
-0.003947
-0.002794
-0.006253
-0.008559
-0.011441
-0.016629
-0.017205
-0.020088
-0.020664
-0.021241
-0.022394
-0.020664
-0.020088
-0.016629
-0.013747
-0.011441
-0.007982
-0.007406
-0.007982
-0.009135
-0.010288
-0.009135
-0.008559
-0.009711
-0.009135
-0.009711
-0.009711
-0.008559
-0.009711
-0.007982
-0.003370
-0.000488
0.002971
0.006429
-0.000488
-0.011441
-0.014323
-0.010288
-0.008559
-0.005676
-0.005676
-0.004523
-0.000488
0.000088
0.001818
0.002394
0.001818
0.002971
0.002971
0.004700
0.013347
0.023147
0.021994
-0.026429
-0.071393
-0.028158
0.022570
0.051970
0.051970
0.038135
0.023147
0.019112
0.019112
0.014500
0.013347
0.012770
0.011618
0.009888
0.009312
0.008735
0.009312
0.006429
0.008735
0.003547
0.005276
0.003547
0.001241
0.001241
-0.001065
-0.002794
-0.002218
-0.003947
-0.004523
-0.008559
-0.007982
-0.007982
-0.006253
-0.006829
-0.006253
-0.005100
-0.005100
-0.006253
-0.006829
-0.007406
-0.007982
-0.007982
-0.009711
-0.009135
-0.009711
-0.008559
-0.006253
-0.002218
0.001241
0.004124
0.005276
0.008735
0.003547
-0.006253
-0.004523
-0.002218
0.000088
0.002394
0.002971
0.005276
0.006429
0.006429
0.007006
0.006429
0.007006
0.006429
0.008735
0.010465
0.013923
0.019688
0.008159
-0.039111
-0.065052
-0.013170
0.023147
0.042170
0.041017
0.023723
0.011618
0.010465
0.004700
0.005276
0.004700
0.002394
0.002394
0.003547
0.000665
0.000088
-0.001641
-0.001641
-0.003370
-0.006829
-0.005676
-0.007982
-0.009711
-0.010288
-0.014323
-0.014900
-0.016629
-0.018358
-0.017782
-0.017205
-0.015476
-0.014900
-0.013170
-0.009711
-0.009711
-0.012017
-0.012017
-0.013747
-0.012594
-0.011441
-0.012594
-0.011441
-0.012594
-0.013170
-0.012017
-0.011441
-0.008559
-0.007982
-0.003947
-0.001065
0.001818
0.004700
0.001241
-0.008559
-0.012594
-0.010288
-0.006253
-0.006253
-0.003370
-0.001065
0.000088
0.001241
0.002971
0.003547
0.004124
0.004124
0.003547
0.003547
0.012194
0.019688
0.027182
-0.010864
-0.071393
-0.047758
0.007582
0.039864
0.049088
0.036982
0.021994
0.016806
0.014500
0.011618
0.011041
0.009312
0.008735
0.009312
0.007582
0.008159
0.007582
0.006429
0.006429
0.005853
0.004700
0.005853
0.005276
0.006429
0.004124
0.004124
0.005853
0.002971
0.003547
0.000665
-0.000488
0.000088
-0.000488
0.001241
0.000665
-0.000488
0.001818
-0.000488
0.000088
-0.001065
-0.003370
-0.005100
-0.006829
-0.005676
-0.006253
-0.007406
-0.007406
-0.007982
-0.005676
-0.002794
0.002394
0.005853
0.008735
0.008735
-0.000488
-0.007982
-0.005100
-0.003370
-0.001641
-0.001065
0.001818
0.001241
0.000665
0.001818
0.002394
0.002971
0.003547
0.004700
0.003547
0.008735
0.014500
0.020841
-0.005676
-0.063322
-0.051217
0.007006
0.037558
0.049664
0.032947
0.019688
0.012194
0.009888
0.006429
0.007582
0.004124
0.002971
0.005276
0.002971
0.002971
0.003547
0.000665
0.000088
-0.002794
-0.003370
-0.005100
-0.006829
-0.008559
-0.012594
-0.013170
-0.014323
-0.018935
-0.016629
-0.017782
-0.018358
-0.016629
-0.015476
-0.010864
-0.007982
-0.009135
-0.006253
-0.006829
-0.006253
-0.006253
-0.006829
-0.007406
-0.007406
-0.007982
-0.006253
-0.007406
-0.007406
-0.007406
-0.005676
-0.001641
0.000088
0.002394
0.005853
0.000088
-0.012017
-0.012017
-0.009711
-0.007406
-0.006829
-0.005676
-0.001065
-0.002794
-0.002218
0.000088
0.002971
0.002394
0.001818
0.002394
0.005276
0.014500
0.024876
0.008159
-0.061017
-0.088110
-0.027582
0.029488
0.055429
0.046205
0.031794
0.012194
0.011041
0.008735
0.008159
0.005853
0.002971
0.004124
0.003547
0.004124
0.002971
0.001818
0.001818
0.001241
0.002394
0.000665
-0.001641
-0.000488
-0.002794
-0.002794
-0.003947
-0.004523
-0.004523
-0.003947
-0.006253
-0.004523
-0.005676
-0.003370
-0.001641
0.000088
0.000665
0.000088
0.001818
0.001818
0.000088
0.001818
0.001241
0.001818
0.001818
0.001818
0.001241
0.000088
0.001241
0.000665
0.000665
0.002394
0.005276
0.007006
0.005853
0.002971
-0.010864
-0.013747
-0.011441
-0.007982
-0.005676
-0.004523
-0.003370
-0.003947
-0.003947
-0.004523
-0.004523
-0.004523
-0.005100
-0.003947
-0.000488
0.007006
0.015076
0.007582
-0.047181
-0.080616
-0.037382
0.012770
0.036982
0.031217
0.018535
0.007582
0.005853
0.003547
0.002394
0.001241
0.001241
0.002971
0.001241
-0.000488
-0.001065
-0.002794
-0.003947
-0.004523
-0.005676
-0.005676
-0.007982
-0.007982
-0.006829
-0.010288
-0.009135
-0.010288
-0.010864
-0.010288
-0.011441
-0.011441
-0.011441
-0.009135
-0.006253
-0.006253
-0.003370
-0.002218
-0.000488
0.000088
-0.000488
0.001241
0.000665
0.001241
0.002971
0.001818
0.004700
0.006429
0.005853
0.005853
0.005276
0.005853
0.007006
0.009888
0.012194
0.013347
0.009888
-0.000488
-0.004523
-0.001641
-0.002218
0.000665
0.001818
0.002971
0.002971
0.005276
0.004124
0.004700
0.005276
0.004124
0.006429
0.007006
0.015076
0.024876
0.010465
-0.052370
-0.084075
-0.032193
0.019112
0.043323
0.034676
0.023723
0.011618
0.011618
0.008735
0.007006
0.006429
0.005276
0.004700
0.004124
0.002971
0.003547
0.001818
0.002971
0.001241
0.000665
0.000088
-0.001065
-0.001065
-0.003370
-0.003947
-0.003947
-0.005100
-0.006253
-0.006829
-0.009711
-0.008559
-0.010288
-0.007982
-0.006829
-0.007406
-0.005100
-0.005676
-0.005100
-0.005100
-0.003947
-0.002218
-0.002218
-0.001065
-0.001641
-0.000488
0.000088
0.001241
0.000665
0.000088
0.000665
0.000665
0.001818
0.002971
0.005853
0.005853
0.008735
0.005276
-0.007406
-0.010288
-0.008559
-0.004523
-0.003370
-0.001641
-0.000488
-0.000488
0.000088
0.000088
0.002394
0.001818
0.002971
0.002394
0.007006
0.014500
0.022570
0.005276
-0.061017
-0.081193
-0.029888
0.022570
0.042746
0.032947
0.020264
0.012770
0.012770
0.011618
0.011041
0.008735
0.007582
0.008735
0.008735
0.009312
0.009312
0.005853
0.007582
0.007006
0.007582
0.008159
0.010465
0.012770
0.012770
0.012770
0.013347
0.011618
0.009888
0.005853
0.001818
0.001241
0.000088
-0.001065
-0.001065
-0.001641
-0.000488
0.000665
-0.000488
0.000665
-0.000488
0.001241
0.000665
0.001241
0.000088
0.000665
0.000665
0.000665
0.000665
0.000088
0.000088
-0.000488
-0.000488
-0.001065
0.000088
0.000665
0.003547
0.004124
0.006429
0.007006
-0.002794
-0.011441
-0.012017
-0.008559
-0.005676
-0.004523
-0.003370
-0.002794
-0.001641
-0.001065
-0.001065
-0.001065
0.000088
-0.001065
0.000088
0.007582
0.016806
0.018535
-0.029311
-0.088687
-0.070816
-0.009711
0.031794
0.030641
0.019688
0.009888
0.008159
0.007006
0.005276
0.005853
0.004124
0.003547
0.003547
0.003547
0.001818
0.002394
0.002971
0.001818
0.001241
0.000665
0.000665
-0.000488
-0.000488
0.000665
0.000088
0.000088
-0.000488
-0.002218
-0.002218
-0.002218
-0.003370
-0.003947
-0.004523
-0.003947
-0.003947
-0.002794
-0.002794
-0.001641
-0.002218
-0.002218
-0.001641
-0.001641
-0.002218
-0.003370
-0.003947
-0.002794
-0.002794
-0.001065
-0.001641
-0.002218
-0.001641
-0.001641
-0.001641
-0.001065
-0.001641
-0.000488
0.002971
0.004700
0.007582
0.005853
-0.003947
-0.010288
-0.008559
-0.006253
-0.005100
-0.003947
-0.002218
-0.001065
-0.002218
-0.000488
-0.000488
0.000088
-0.001065
0.000088
0.001241
0.010465
0.020841
0.015653
-0.043146
-0.092722
-0.055252
0.005853
0.036405
0.029488
0.018535
0.009312
0.008159
0.005276
0.005276
0.005853
0.004124
0.004700
0.003547
0.002971
0.003547
0.002394
0.002394
0.000088
0.000088
0.001818
0.000665
0.001241
0.001241
0.000088
0.000665
0.000088
0.000088
0.000088
-0.001065
-0.002218
-0.004523
-0.003947
-0.003947
-0.002794
-0.002794
-0.001641
0.000088
-0.001065
0.000088
0.000088
-0.001065
-0.001641
-0.000488
-0.000488
-0.000488
-0.000488
-0.001065
0.000665
0.001241
0.002971
0.003547
0.003547
0.004700
0.004124
0.005276
0.007582
0.010465
0.011041
0.013347
0.005853
-0.005100
-0.005676
-0.002794
-0.001065
0.000088
0.001818
0.004124
0.001818
0.001818
0.002971
0.003547
0.002394
0.001241
0.002971
0.009888
0.013923
0.017382
-0.022394
-0.082922
-0.059287
-0.000488
0.032947
0.038711
0.028335
0.015076
0.011041
0.008735
0.007006
0.007582
0.005853
0.004700
0.005853
0.004124
0.005853
0.004700
0.003547
0.004124
0.002971
0.002971
0.001818
0.000665
0.001241
0.000665
0.000665
0.000665
0.000665
0.000665
0.000665
0.000088
0.000088
-0.001065
0.000665
0.000088
0.000088
0.000665
0.001241
0.002394
0.002394
0.001241
0.003547
0.001818
0.003547
0.002394
0.002394
0.004124
0.003547
0.004124
0.001818
0.000088
0.000665
0.001818
0.001241
0.002394
0.001818
0.001241
0.001241
0.002971
0.004700
0.005853
0.007582
-0.001641
-0.010864
-0.007982
-0.007406
-0.004523
-0.003947
-0.002794
-0.002218
-0.003947
-0.002794
-0.002794
-0.002794
-0.002218
-0.001641
0.000665
0.011041
0.019112
0.008159
-0.059287
-0.099063
-0.054675
0.008735
0.034100
0.026606
0.013923
0.009312
0.008159
0.006429
0.005276
0.004700
0.004124
0.005276
0.005276
0.003547
0.004124
0.002394
0.001818
0.001241
0.001241
0.003547
0.001241
0.001818
0.001241
0.001818
0.002394
0.002394
0.004700
0.004124
-0.000488
0.001241
0.000088
-0.002218
-0.001641
-0.001641
-0.002218
-0.002218
-0.001641
-0.001065
-0.001641
-0.002218
-0.000488
-0.001641
0.000088
0.000665
-0.000488
0.000665
0.000665
-0.001065
-0.001065
-0.000488
-0.001641
-0.001641
-0.001065
-0.001641
-0.000488
-0.001065
-0.000488
0.001818
0.003547
0.006429
0.003547
-0.007982
-0.011441
-0.009711
-0.007982
-0.005676
-0.002794
-0.003370
-0.003370
-0.003947
-0.003947
-0.003947
-0.004523
-0.003947
-0.003370
0.002971
0.011041
0.017382
-0.007406
-0.078887
-0.088687
-0.026429
0.022570
0.036405
0.026029
0.011041
0.005276
0.004700
-0.000488
0.001241
0.001241
-0.000488
0.000665
0.000088
-0.000488
0.000665
0.000088
0.001818
-0.000488
-0.001065
0.000088
-0.000488
0.000088
-0.002218
-0.002794
0.000665
-0.001641
-0.002218
-0.004523
-0.004523
-0.002794
-0.002794
-0.002794
-0.001641
-0.001641
-0.001641
0.000665
0.002394
0.002971
0.002971
0.005276
0.007582
0.007006
0.009888
0.009888
0.009312
0.009312
0.008159
0.008735
0.008159
0.008735
0.008735
0.007006
0.007582
0.007582
0.009312
0.009312
0.010465
0.010465
0.003547
-0.003947
-0.003947
-0.003370
-0.001641
0.001818
0.002971
0.001818
0.001818
0.002971
0.001241
0.002394
0.002971
0.002971
0.003547
0.012194
0.013923
0.012194
-0.032770
-0.088110
-0.045452
0.013347
0.039288
0.040441
0.026606
0.011041
0.007582
0.006429
0.002394
0.003547
0.002394
0.000665
0.000665
-0.000488
0.001241
-0.002794
-0.004523
-0.003947
-0.005100
-0.005676
-0.006829
-0.006829
-0.007982
-0.009711
-0.010288
-0.009135
-0.009135
-0.009711
-0.009711
-0.008559
-0.008559
-0.009135
-0.005676
-0.005676
-0.004523
-0.003370
-0.002794
-0.001641
-0.002218
-0.001641
0.001818
-0.000488
0.000088
0.000088
0.000088
0.001241
-0.000488
-0.001641
-0.002794
-0.002794
-0.002218
-0.003370
-0.002794
-0.000488
-0.001065
-0.000488
0.000665
-0.003947
-0.012017
-0.017782
-0.015476
-0.009711
-0.010864
-0.008559
-0.006829
-0.006829
-0.007406
-0.007406
-0.006829
-0.006253
-0.008559
-0.007982
-0.004523
0.001241
0.007006
-0.014900
-0.075428
-0.069663
0.005276
0.057158
0.083675
0.077334
0.062923
0.054852
0.053123
0.046782
0.039864
0.032370
0.047358
0.056582
0.058311
0.056582
0.054276
0.047935
0.015076
-0.005100
-0.010288
-0.010864
-0.016629
-0.014900
-0.017205
-0.019511
-0.017782
-0.017782
-0.018358
-0.016053
-0.016629
-0.015476
-0.015476
-0.013747
-0.012594
-0.011441
-0.010288
-0.009711
-0.010288
-0.006829
-0.008559
-0.006829
-0.007406
-0.005100
-0.003947
-0.005676
-0.003947
-0.003947
-0.005676
-0.002218
-0.003370
-0.002794
-0.001065
-0.002218
-0.001065
0.000088
0.002971
0.004124
0.007582
0.002394
-0.012017
-0.013747
-0.009135
-0.007982
-0.005676
-0.002218
-0.002794
-0.001065
-0.001641
-0.001641
-0.002218
-0.001065
0.000088
-0.000488
0.005853
0.011618
0.020264
-0.010864
-0.079463
-0.070240
-0.007982
0.030641
0.040441
0.030064
0.014500
0.007006
0.004700
0.004124
0.003547
0.001818
0.001818
0.001241
0.001818
0.000665
-0.001065
-0.003947
-0.002218
-0.000488
-0.001641
-0.001641
-0.002794
-0.003370
-0.005100
-0.002218
-0.002218
-0.001641
-0.003370
-0.003947
-0.006253
-0.003947
-0.003947
-0.002794
-0.002218
-0.000488
0.002394
-0.002218
0.001241
-0.000488
0.001241
0.002971
0.003547
0.001241
0.001241
0.000665
0.001818
0.000665
0.001818
0.003547
0.001241
0.001241
0.000665
0.001818
0.005276
0.005276
0.006429
0.005276
-0.002218
-0.010864
-0.010864
-0.007982
-0.004523
-0.002794
-0.002794
-0.002218
-0.000488
-0.005676
-0.001641
0.000665
-0.002218
-0.000488
-0.001641
0.005276
0.013347
0.005853
-0.044876
-0.078310
-0.027005
0.016229
0.036405
0.030641
0.019688
0.008735
0.007006
0.006429
0.004124
0.010465
0.001241
0.001818
0.001818
0.000088
0.001818
0.000088
0.001241
-0.002218
-0.001065
-0.000488
-0.005676
-0.005100
-0.006253
-0.009711
-0.009135
-0.009135
-0.012017
-0.008559
-0.012017
-0.004523
-0.009711
-0.010864
-0.007406
-0.005100
-0.003947
0.000088
-0.001065
0.001818
0.001241
0.000088
0.000665
0.001818
0.001818
0.003547
0.001818
0.002971
0.001818
0.001241
0.004124
0.002394
0.002971
0.005853
0.004124
0.005276
0.001818
-0.001065
-0.011441
-0.008559
-0.006253
-0.001065
0.000088
0.000088
-0.001065
0.003547
0.000665
0.000088
0.001241
0.002971
0.001818
0.004124
0.008159
0.015653
0.013923
-0.028735
-0.083499
-0.040840
0.013347
0.038711
0.045629
0.030064
0.016229
0.009888
0.008735
0.005276
0.004700
0.001818
0.000088
0.001241
0.000088
0.000088
-0.001065
-0.003947
-0.002794
-0.002794
-0.002218
0.000665
-0.004523
0.002971
-0.005100
-0.005100
-0.006829
-0.012017
-0.012017
-0.013747
-0.016053
-0.015476
-0.010288
-0.007406
-0.004523
0.001818
-0.000488
0.002394
0.010465
0.008159
0.007006
0.010465
0.007006
0.006429
0.009312
0.009888
0.012770
0.012770
0.016229
0.014500
0.013923
0.016806
0.019688
0.019112
0.010465
-0.004523
-0.000488
0.000665
0.004124
0.007006
0.009312
0.011618
0.009312
0.009312
0.011618
0.009888
0.006429
0.007006
0.008735
0.013347
0.011618
0.014500
-0.014900
-0.077157
-0.066781
0.009888
0.041017
0.055429
0.046205
0.032370
0.014500
0.013347
0.009312
0.008159
0.007006
0.008159
0.005853
0.003547
0.005276
0.007582
0.003547
0.002971
0.002394
0.002394
-0.004523
-0.005100
-0.004523
-0.012017
-0.013747
-0.013747
-0.018358
-0.018358
-0.021817
-0.025852
-0.021817
-0.018358
-0.015476
-0.012017
-0.008559
-0.003370
-0.004523
-0.003947
0.001818
0.001818
0.005276
-0.001065
0.002971
0.002394
0.007006
0.001818
0.003547
0.005276
0.004124
0.005276
0.005276
-0.002218
-0.011441
-0.007982
-0.005676
-0.005100
-0.001641
0.001241
0.004124
0.007006
0.002971
0.004700
0.004700
0.004124
0.005276
0.006429
0.007582
0.011618
0.013923
-0.007406
-0.060440
-0.084651
-0.017782
0.029488
0.051393
0.045052
0.027758
0.012770
0.010465
0.008159
0.004700
0.006429
0.002971
0.003547
0.002394
-0.000488
-0.001641
-0.002794
-0.004523
-0.005676
-0.005100
-0.006253
-0.006829
-0.011441
-0.013170
-0.017782
-0.017782
-0.018935
-0.020664
-0.018358
-0.018935
-0.014900
-0.011441
-0.011441
-0.007982
-0.006829
-0.003947
-0.002218
0.000088
0.002971
0.000665
0.001241
-0.001065
-0.001065
0.005853
0.009312
0.005276
0.003547
-0.005100
-0.005676
-0.007406
-0.005100
-0.001065
-0.012594
-0.021817
-0.014900
-0.017205
-0.006829
-0.005676
-0.003370
-0.010288
-0.009711
-0.013170
-0.007982
-0.003947
0.000088
-0.001065
0.007006
0.001241
0.002394
0.008159
-0.009711
-0.085228
-0.076581
-0.005676
0.039288
0.058887
0.026606
0.013923
0.008159
0.007006
0.012194
0.004700
0.005853
-0.001641
0.015076
0.007582
-0.011441
-0.006253
-0.004523
-0.003947
-0.005100
0.003547
-0.005676
-0.010288
0.001818
-0.013747
-0.014900
-0.014900
-0.009135
-0.018358
-0.015476
-0.009135
-0.006829
-0.007982
-0.009711
-0.006253
0.000088
-0.001641
0.005276
0.000088
-0.001065
0.005276
-0.002218
0.002394
0.002971
0.005853
-0.003947
0.011618
-0.002794
-0.002794
0.006429
0.001818
0.009888
0.000665
-0.004523
-0.002218
-0.017782
-0.013170
-0.005676
-0.007406
-0.001641
-0.000488
0.007006
0.003547
-0.000488
-0.005676
-0.010864
-0.008559
-0.006253
0.000665
0.004124
0.005276
-0.038535
-0.097334
-0.046029
0.006429
0.039288
0.041017
0.032370
0.017382
0.007006
0.008159
0.008735
0.017382
0.001241
0.000665
0.007006
0.008159
0.008735
0.008159
0.009312
0.007582
0.016229
0.007006
0.001818
0.003547
0.005853
0.003547
0.003547
0.001818
0.002971
0.004124
0.008735
0.004124
0.003547
0.004124
0.010465
0.012770
0.014500
0.016229
0.013923
0.016229
0.015076
0.015076
0.018535
0.017382
0.013347
0.016806
0.016229
0.020264
0.020841
0.023147
0.020841
0.021994
0.019112
0.010465
0.005853
0.004700
0.010465
0.011041
0.012770
0.018535
0.017382
0.013923
0.014500
0.013923
0.019688
0.017382
0.023147
0.013347
0.023147
0.029488
0.016806
-0.052370
-0.084651
-0.037958
0.022570
0.046782
0.033523
0.016229
0.009312
0.006429
0.003547
0.004700
-0.003370
-0.000488
0.002394
0.002971
0.001818
0.001241
-0.005100
-0.015476
-0.013170
-0.011441
-0.013747
-0.023547
-0.024699
-0.018358
-0.017782
-0.031041
-0.016629
-0.010288
-0.018935
-0.022394
-0.024699
-0.017205
-0.014323
-0.012017
-0.007406
-0.010288
-0.010288
-0.014323
-0.014323
-0.013170
0.001241
0.000665
-0.003947
-0.001641
0.009888
0.012194
0.009312
0.025453
0.012770
0.030641
0.016229
0.005853
0.008735
0.017382
0.020264
0.020264
0.029488
0.026606
0.028911
0.032370
0.036982
0.028335
0.027758
0.030064
0.032947
0.034676
0.039864
0.042746
0.022570
-0.026429
-0.028158
0.032370
0.055429
0.070417
0.060040
0.047935
0.041594
0.042746
0.038135
0.039288
0.037558
0.037558
0.036405
0.030064
0.027182
0.023147
0.017382
0.016806
0.011618
0.008735
-0.002794
-0.012594
-0.027005
-0.040264
-0.046605
-0.052946
-0.058711
-0.057558
-0.061593
-0.061017
-0.061017
-0.058134
-0.050640
-0.048334
-0.046605
-0.041417
-0.039687
-0.036805
-0.034499
-0.035076
-0.032770
-0.033923
-0.033346
-0.031041
-0.027582
-0.021241
-0.020664
-0.017205
-0.014900
-0.014900
-0.016053
-0.018358
-0.014900
-0.009711
-0.007982
-0.006829
-0.003370
-0.002794
-0.002794
0.000088
0.001241
0.001241
0.001818
0.004124
0.004700
0.010465
0.015076
0.012194
-0.025852
-0.082346
-0.056981
0.002394
0.030641
0.035252
0.023147
0.011041
0.004700
0.006429
0.003547
0.004700
0.000088
0.000665
-0.000488
-0.002794
-0.004523
-0.003947
-0.001641
-0.001065
-0.003370
-0.005676
-0.006829
-0.007406
-0.007982
-0.010288
-0.013747
-0.011441
-0.009135
-0.009711
-0.010864
-0.009711
-0.006829
-0.008559
-0.006253
-0.001065
0.001241
0.001818
0.000088
0.001818
0.004124
0.002971
0.004124
0.000665
0.000088
0.001818
0.002971
0.004124
0.003547
-0.000488
0.002394
0.004124
0.004124
-0.003370
-0.008559
-0.005100
-0.003947
-0.002218
-0.002218
0.000088
-0.001065
0.002971
0.007582
0.009888
0.009888
0.009888
0.007582
0.007582
0.010465
0.009312
0.009312
-0.025276
-0.071393
-0.029311
0.019688
0.038135
0.045629
0.028911
0.016229
0.010465
0.014500
0.007582
0.008735
0.006429
0.003547
0.005276
0.000088
0.004124
0.003547
-0.002218
0.000665
-0.002218
-0.002794
-0.004523
-0.008559
-0.010864
-0.009135
-0.010288
-0.012017
-0.013747
-0.012017
-0.015476
-0.012594
-0.011441
-0.007982
-0.002794
-0.001065
0.003547
0.004124
0.004700
0.004124
0.005276
0.004124
0.006429
0.006429
0.005276
0.005276
0.004700
0.005853
0.004124
0.001241
-0.002794
-0.010288
-0.009135
-0.011441
-0.007982
-0.006829
-0.006829
-0.002794
-0.001065
-0.001641
-0.000488
-0.002218
-0.001065
-0.001065
0.000088
0.002394
0.006429
0.005853
0.006429
-0.020664
-0.064475
-0.061017
0.006429
0.027758
0.042746
0.035252
0.023147
0.009888
0.005276
0.004124
0.002971
0.002971
-0.001065
-0.000488
-0.001641
0.001241
-0.005676
-0.009135
-0.005100
-0.006829
-0.010864
-0.007406
-0.012017
-0.014323
-0.019511
-0.021241
-0.020088
-0.024123
-0.023547
-0.023547
-0.019511
-0.013747
-0.014323
-0.015476
-0.007982
-0.009135
-0.002794
-0.003370
0.000665
0.001818
0.000088
0.001241
0.000088
0.004124
0.001241
0.004124
0.003547
0.006429
0.003547
0.001241
-0.003947
-0.007982
-0.007982
-0.005100
-0.001641
-0.003947
0.000665
0.005276
0.006429
0.003547
0.007006
0.005276
0.008735
0.008159
0.009312
0.013347
0.017959
0.017382
-0.013170
-0.066205
-0.050064
0.009312
0.041594
0.052546
0.038135
0.026606
0.017382
0.014500
0.013923
0.009888
0.008735
0.007582
0.007582
0.007582
0.007582
0.005853
0.004700
0.005276
0.002394
0.000665
-0.004523
-0.003947
-0.003947
-0.008559
-0.007406
-0.008559
-0.008559
-0.006829
-0.009135
-0.006829
-0.005100
-0.003947
-0.005100
-0.001065
-0.001641
0.000665
-0.001065
0.002971
0.000665
-0.001065
-0.001641
-0.001641
-0.001065
-0.001065
0.000665
-0.000488
0.002971
0.001818
0.002971
0.001241
-0.003370
-0.012594
-0.014323
-0.011441
-0.008559
-0.009711
-0.005100
-0.005676
-0.005100
-0.003370
-0.000488
-0.001065
-0.001065
0.000088
0.000088
0.007582
0.014500
0.017959
-0.013170
-0.080040
-0.069663
-0.005100
0.035829
0.047358
0.032947
0.015076
0.009888
0.009888
0.006429
0.007582
0.006429
0.004124
0.009888
0.004700
0.000665
0.000088
-0.000488
-0.001065
-0.001641
-0.000488
-0.001065
-0.004523
0.000665
-0.005100
-0.005676
-0.005676
-0.006829
-0.007406
-0.009135
-0.005676
-0.006253
-0.007406
-0.006253
-0.005100
-0.003947
-0.002794
-0.002794
-0.002218
-0.003947
-0.006253
-0.002794
-0.003370
-0.003370
-0.003370
-0.001065
0.002394
0.004124
0.004700
0.008159
0.004124
-0.003947
-0.007406
-0.006829
-0.001641
0.000665
0.002971
0.003547
0.003547
0.005853
0.002971
0.004700
0.005276
0.005853
0.008159
0.012770
0.020264
0.028335
0.024876
-0.031041
-0.085228
-0.033923
0.021994
0.055429
0.055429
0.038135
0.021994
0.017959
0.017382
0.014500
0.015076
0.012770
0.011618
0.011618
0.010465
0.009888
0.010465
0.009312
0.012194
0.008159
0.008159
0.006429
0.002971
0.004700
0.001241
0.001818
0.000088
0.000088
0.001818
0.000088
0.000088
0.004124
0.006429
0.007582
0.007582
0.008735
0.011041
0.009888
0.010465
0.010465
0.011618
0.010465
0.010465
0.012770
0.011618
0.012194
0.014500
0.013347
0.015076
0.010465
0.001818
-0.003947
-0.002218
0.001241
0.004700
0.004124
0.006429
0.005853
0.007582
0.010465
0.010465
0.011041
0.005853
0.005276
0.005276
0.013347
0.020841
0.011618
-0.046605
-0.095028
-0.041993
0.017959
0.047358
0.041017
0.028335
0.012194
0.011618
0.009888
0.007006
0.006429
0.005853
0.005276
0.005853
0.004124
0.004700
0.003547
0.001818
0.001241
-0.001065
-0.001065
-0.002218
-0.004523
-0.005676
-0.007406
-0.008559
-0.010864
-0.010864
-0.010288
-0.012017
-0.012594
-0.012017
-0.012594
-0.010288
-0.010864
-0.008559
-0.007982
-0.008559
-0.008559
-0.009711
-0.009135
-0.008559
-0.010288
-0.009135
-0.007406
-0.007982
-0.006829
-0.005100
-0.003947
0.000088
-0.005100
-0.014323
-0.018935
-0.013747
-0.010288
-0.009135
-0.005676
-0.006829
-0.003947
-0.004523
-0.004523
-0.003947
-0.001641
-0.002794
-0.001065
0.004124
0.012194
0.021994
-0.007982
-0.083499
-0.092145
-0.021817
0.031217
0.045052
0.035829
0.017382
0.009888
0.009312
0.005853
0.004700
0.002394
0.004700
0.005853
0.003547
0.004124
0.002971
0.003547
0.003547
0.004124
0.003547
0.000665
-0.002218
0.002394
-0.002794
-0.000488
0.000088
-0.003947
-0.003947
-0.002218
-0.005676
-0.005676
-0.001641
0.000088
0.001241
0.001818
0.002971
0.004124
0.007006
0.007006
0.005853
0.005853
0.007582
0.007582
0.009312
0.008159
0.011041
0.012194
0.011618
0.017382
0.018535
-0.000488
-0.007982
-0.005100
-0.000488
0.001818
0.002394
0.001241
0.000665
-0.000488
-0.000488
-0.000488
-0.000488
-0.002218
-0.001641
0.002394
0.008735
0.020264
-0.012017
-0.085804
-0.100792
-0.016053
0.021994
0.045052
0.035252
0.020841
0.001241
0.000088
-0.003947
-0.005100
-0.004523
-0.005676
-0.006253
-0.009135
-0.009711
-0.009135
-0.010864
-0.011441
-0.011441
-0.013747
-0.012017
-0.013747
-0.013170
-0.014323
-0.014900
-0.010288
-0.012594
-0.008559
-0.009135
-0.010288
-0.007982
-0.006253
-0.006253
-0.005100
-0.004523
-0.002218
-0.001641
-0.000488
0.000665
0.001241
0.001818
0.000088
-0.000488
0.001241
0.001818
0.005276
0.007006
0.007006
0.009888
0.004700
-0.007982
-0.009135
-0.005676
-0.000488
0.000665
0.002394
0.002971
0.001818
0.003547
0.005853
0.007006
0.008159
0.008735
0.008159
0.013347
0.023723
0.035252
-0.002794
-0.088110
-0.097334
-0.014900
0.042746
0.060040
0.049088
0.027182
0.013347
0.009888
0.007006
0.004124
0.002394
-0.000488
-0.002794
-0.003947
-0.005100
-0.005100
-0.007406
-0.006253
-0.006253
-0.007982
-0.003370
-0.006253
-0.004523
-0.003947
-0.002794
-0.002218
-0.004523
-0.001641
-0.003947
-0.005676
-0.005676
-0.002218
-0.002794
-0.003370
-0.002794
-0.001641
-0.003370
-0.002218
0.000088
-0.001641
-0.001065
-0.000488
-0.000488
-0.000488
-0.002218
-0.000488
0.002971
0.004700
0.004700
0.003547
-0.006253
-0.014900
-0.015476
-0.014323
-0.009711
-0.010288
-0.009135
-0.009711
-0.009135
-0.006829
-0.006253
-0.006253
-0.007406
-0.006253
-0.005100
0.006429
0.023147
0.017382
-0.059864
-0.125580
-0.069663
0.007582
0.045052
0.046782
0.036982
0.015076
0.013347
0.011041
0.009888
0.011618
0.008735
0.008159
0.008159
0.008735
0.008735
0.006429
0.005853
0.006429
0.005276
0.007006
0.004700
0.004124
0.004700
0.001241
0.002394
0.000665
0.007582
0.000665
0.001818
-0.000488
0.000088
-0.000488
0.002394
0.002394
0.005853
0.005853
0.007582
0.006429
0.005276
0.005853
0.005853
0.003547
0.001818
0.004124
0.003547
0.004700
0.011618
0.007582
0.006429
0.000665
-0.006253
-0.010288
-0.008559
-0.004523
-0.003947
0.000088
-0.002794
0.001241
0.000088
-0.000488
0.000088
0.000088
0.001818
0.002394
0.007006
0.015653
0.012770
-0.044299
-0.109439
-0.054675
0.021417
0.046782
0.050240
0.037558
0.019688
0.009888
0.011618
0.008159
0.007006
0.006429
0.007006
0.008159
0.004700
0.007006
0.004124
0.004124
0.004700
0.002971
0.003547
0.004124
-0.002794
-0.002794
-0.005100
-0.005100
-0.007406
-0.011441
-0.010864
-0.012594
-0.014900
-0.009711
-0.009135
-0.006829
-0.004523
-0.003947
-0.001065
-0.002218
0.001241
0.000665
0.001818
0.002971
0.000088
0.005276
0.004700
0.002394
0.004700
0.002971
0.005276
0.004124
-0.004523
-0.003370
-0.006829
-0.005100
-0.000488
-0.000488
0.001818
0.001818
0.001818
0.001818
0.002971
0.002971
0.001818
0.001818
0.005276
0.014500
0.023723
0.000665
-0.086957
-0.103098
-0.044299
0.019112
0.039864
0.031217
0.016806
0.011618
0.009312
0.008159
0.006429
0.006429
0.004700
0.012770
0.007006
0.004124
0.005276
0.004700
0.005853
0.005853
0.007006
0.007582
0.005276
0.007006
0.004124
0.005276
0.001241
-0.001641
-0.001065
-0.003370
-0.005100
-0.007982
-0.005100
-0.002218
-0.002218
-0.004523
-0.001065
0.000665
0.002394
0.002394
0.001818
0.003547
0.002394
0.000665
0.001818
0.002971
0.003547
0.004124
0.004700
0.006429
0.009312
0.005276
-0.003947
-0.010864
-0.009135
-0.002218
-0.001641
-0.002218
0.000665
0.000088
0.000088
0.001818
0.002394
0.002394
0.001818
0.002394
0.007006
0.012194
0.020841
-0.004523
-0.068511
-0.077157
-0.013170
0.034100
0.050817
0.034676
0.018535
0.013347
0.009888
0.007006
0.005853
0.005276
0.002971
0.002971
0.001241
0.001241
0.002394
-0.000488
-0.000488
-0.002218
-0.002794
-0.003370
-0.005100
-0.006253
-0.006829
-0.008559
-0.007982
-0.009711
-0.009135
-0.008559
-0.008559
-0.006829
-0.007982
-0.005100
-0.004523
-0.001641
-0.000488
0.000665
0.002394
0.000665
0.002394
0.003547
0.002394
0.002394
0.004124
0.002394
0.002394
0.005853
0.005853
0.009312
0.007582
0.000665
-0.007982
-0.010288
-0.006829
-0.003947
-0.001065
0.001241
0.001241
0.003547
0.004700
0.002394
0.002971
0.002971
0.004700
0.005853
0.015076
0.024876
0.019112
-0.035652
-0.078887
-0.028735
0.019688
0.036982
0.021417
0.014500
0.012194
0.013347
0.011041
0.008159
0.008735
0.006429
0.009312
0.009312
0.006429
0.007006
0.004700
0.005276
0.003547
0.001818
0.004700
0.001818
0.001241
0.000665
-0.002218
-0.001065
-0.005676
-0.007982
-0.005100
-0.006829
-0.005676
-0.004523
-0.008559
-0.005676
-0.006253
-0.004523
-0.003947
0.000088
-0.000488
-0.002218
-0.004523
-0.004523
-0.002794
-0.001641
-0.002794
-0.000488
-0.000488
0.000665
0.000665
-0.000488
-0.005676
-0.013747
-0.013170
-0.011441
-0.009711
-0.005100
-0.003947
-0.005676
-0.003947
-0.001065
-0.001065
0.000088
0.000665
-0.001641
-0.001641
0.005853
0.010465
-0.003370
-0.062169
-0.097910
-0.035076
0.023147
0.046205
0.040441
0.022570
0.005853
0.004124
0.003547
-0.002794
0.000665
0.005853
-0.000488
-0.003370
-0.003947
-0.002218
-0.006253
-0.004523
-0.006253
-0.010288
-0.008559
-0.010288
-0.012594
-0.010288
-0.012017
-0.009711
-0.011441
-0.014900
-0.011441
-0.015476
-0.012594
-0.006829
-0.005676
-0.003370
0.001241
0.005853
0.006429
0.005276
0.008159
0.007006
0.007582
0.008159
0.005276
0.007582
0.008735
0.011041
0.015653
0.009888
0.011618
0.014500
-0.005100
-0.012017
-0.007982
-0.002218
-0.002218
0.000088
0.002971
0.004124
0.004124
0.002971
0.002971
0.004700
0.005276
0.008159
0.011041
0.017959
0.027758
0.000088
-0.073699
-0.083499
-0.007406
0.040441
0.060617
0.048511
0.026029
0.019112
0.011618
0.003547
0.001818
0.004700
0.000665
0.013347
0.002394
0.010465
0.004124
0.001241
0.005276
0.006429
0.004700
0.007006
0.005853
0.002394
0.000088
-0.001641
0.000665
-0.002794
-0.003370
-0.004523
-0.007406
-0.004523
-0.003947
-0.003370
-0.002218
0.000665
0.013347
-0.001065
-0.000488
0.005853
0.004700
0.007582
0.008159
0.006429
0.009888
0.014500
0.009312
0.011041
0.016806
0.011618
0.013923
0.005853
-0.005100
-0.007982
-0.003947
-0.002794
0.000088
0.004700
0.001241
0.002971
0.007582
0.010465
0.010465
0.008735
0.007006
0.010465
0.012770
0.020264
0.026606
-0.024123
-0.095604
-0.070240
0.004700
0.051393
0.052546
0.036405
0.020264
0.015653
0.015076
0.011618
0.012770
0.005853
0.004700
0.005276
0.001818
0.007582
-0.001641
-0.005100
0.000665
0.000088
0.002394
-0.000488
-0.000488
-0.001641
-0.005676
-0.012594
-0.005100
-0.007406
-0.010864
-0.006253
-0.006829
-0.007982
-0.007982
-0.012017
-0.021241
-0.018358
-0.011441
-0.005676
-0.003370
-0.003947
-0.003370
-0.002794
-0.003370
-0.014900
-0.011441
-0.007406
-0.009135
-0.003370
0.001241
-0.006253
-0.005100
-0.002218
-0.010288
-0.024699
-0.018935
-0.017782
-0.010288
-0.005100
0.001241
-0.005100
-0.002794
-0.012017
-0.005100
0.007006
-0.006253
-0.002218
0.011041
0.016229
0.019112
0.001818
-0.085228
-0.105981
-0.016053
0.039864
0.064652
0.036982
0.033523
0.012194
-0.008559
-0.007406
0.000665
0.007006
0.007582
0.009312
0.001818
0.001818
-0.017205
-0.001641
-0.005100
-0.013170
0.002394
0.000088
-0.008559
-0.002794
-0.025852
-0.014323
-0.009135
-0.012017
-0.021241
-0.009711
-0.015476
-0.009135
-0.003370
-0.002218
-0.001641
-0.005100
-0.012017
-0.005676
-0.024123
-0.007406
0.003547
0.007582
-0.001065
-0.010288
0.004124
0.017959
0.004700
-0.002794
-0.003370
0.005276
-0.003947
-0.001065
-0.011441
-0.016053
-0.005676
0.002394
0.003547
-0.002218
-0.011441
-0.003370
-0.007406
0.001241
0.004124
0.006429
0.025453
0.017959
0.004700
0.013347
0.015076
-0.049487
-0.106557
-0.044876
0.023147
0.070993
0.060617
0.045052
0.018535
0.014500
0.014500
0.017959
0.017959
0.013347
0.017959
0.023723
-0.003370
0.008735
0.005276
0.008735
0.006429
0.009888
-0.001065
0.001818
0.007006
0.007582
0.007006
0.012770
0.017382
0.015076
0.017382
0.016229
0.020841
0.016229
0.022570
0.028335
0.028335
0.031794
0.032947
0.028911
0.026606
0.025453
0.031794
0.017959
0.023723
0.019112
0.020841
0.020264
0.021417
0.021994
0.017382
0.021417
0.001818
0.000088
0.001818
0.009888
0.006429
0.009888
0.011041
0.011618
0.012770
0.005853
0.005853
0.001241
-0.000488
-0.013747
-0.011441
-0.012017
-0.008559
-0.055252
-0.126733
-0.107710
-0.016053
0.026606
0.036405
0.017959
-0.005100
-0.033923
-0.043723
-0.043146
-0.040840
-0.031041
-0.028158
-0.019511
-0.019511
-0.010864
-0.017782
-0.024699
-0.021241
-0.016629
-0.016053
-0.007982
-0.013747
-0.014900
-0.014323
-0.010864
-0.011441
-0.015476
-0.013170
-0.027005
-0.025276
-0.025852
-0.028158
-0.023547
-0.021241
-0.019511
-0.015476
-0.017782
-0.010864
-0.013170
-0.007982
-0.012594
-0.009711
-0.010288
-0.010864
-0.010288
-0.004523
-0.002218
0.001241
-0.001641
-0.002794
-0.012594
-0.017205
-0.018358
-0.012017
-0.008559
-0.007982
-0.006253
-0.008559
-0.007982
-0.008559
-0.010864
-0.007982
-0.009135
-0.008559
-0.001641
0.011041
0.025453
0.008159
-0.058134
-0.090416
-0.027582
0.032947
0.060040
0.050817
0.035829
0.021417
0.020264
0.016806
0.015076
0.016806
0.014500
0.014500
0.014500
0.011041
0.017959
0.007582
0.008735
0.006429
0.005276
0.002971
0.001241
0.000665
-0.001065
-0.001641
-0.001065
-0.000488
0.000665
0.001818
0.002971
0.004700
0.005853
0.008159
0.010465
0.011618
0.013347
0.013923
0.014500
0.013923
0.014500
0.013923
0.012194
0.012770
0.012194
0.012194
0.011041
0.012770
0.013347
0.012194
0.013923
0.005853
-0.006253
-0.007406
-0.005100
-0.001065
-0.002218
-0.001065
0.000088
0.002394
0.002971
0.003547
0.002971
0.005276
0.003547
0.005276
0.013923
0.021417
0.024876
-0.020664
-0.089263
-0.057558
0.011041
0.047358
0.062346
0.040441
0.020264
0.012770
0.013347
0.008159
0.008735
0.009312
0.008159
0.011041
0.005853
0.005276
0.004124
0.003547
0.005276
0.001818
0.000665
0.001241
0.001241
-0.001065
-0.004523
-0.004523
-0.005100
-0.006253
-0.003947
-0.007982
-0.007982
-0.006829
-0.002794
-0.002794
-0.001065
0.000088
0.002971
0.002394
0.003547
0.002971
0.003547
0.008735
0.006429
0.004700
0.005853
0.005276
0.009312
0.008735
0.010465
0.010465
0.007582
0.001818
-0.009135
-0.005676
0.001241
0.002971
0.003547
0.002971
0.004124
0.009312
0.007006
0.009888
0.011618
0.013347
0.008735
0.013923
0.018535
0.027182
-0.009711
-0.080616
-0.067358
0.000665
0.040441
0.053699
0.039288
0.021994
0.016806
0.010465
0.009888
0.009888
0.001818
0.000088
0.002971
-0.000488
0.001241
0.001241
0.001818
-0.003947
-0.003370
-0.003370
-0.005676
-0.007982
-0.005100
-0.008559
-0.012594
-0.006829
-0.006829
-0.014900
-0.008559
-0.010288
-0.013747
-0.014323
-0.010288
-0.007982
-0.009135
-0.006253
-0.006829
-0.005100
-0.005676
-0.007406
-0.003947
-0.006253
-0.005676
-0.003370
-0.005100
-0.002794
-0.001641
-0.001641
0.002971
-0.006253
-0.018935
-0.022394
-0.019511
-0.015476
-0.014900
-0.012017
-0.012017
-0.012017
-0.009711
-0.010864
-0.009135
-0.007406
-0.007982
-0.005676
-0.001065
0.005276
0.019112
-0.008559
-0.077157
-0.077734
-0.010864
0.031794
0.049088
0.039864
0.024300
0.010465
0.008735
0.005276
0.005276
0.006429
0.002971
0.007006
0.004124
0.004700
0.004700
0.003547
0.005853
0.002394
0.002394
0.001818
-0.001065
0.000665
0.000665
-0.002218
-0.000488
-0.001641
0.000088
-0.000488
-0.001065
0.000665
-0.000488
0.001818
0.004700
0.006429
0.007582
0.008159
0.008735
0.011041
0.009312
0.011041
0.010465
0.010465
0.010465
0.007582
0.010465
0.012194
0.013923
0.016229
0.017382
0.012770
-0.002218
-0.003947
-0.000488
0.001241
0.002394
0.005276
0.005276
0.007006
0.006429
0.005276
0.008735
0.006429
0.006429
0.008735
0.013347
0.020841
0.025453
-0.017205
-0.075428
-0.060440
0.005853
0.041017
0.048511
0.034100
0.017382
0.012770
0.011041
0.009888
0.007582
0.008159
0.004124
0.005276
0.005853
0.004700
0.002394
0.000665
-0.001065
-0.003370
-0.004523
-0.005676
-0.006829
-0.006253
-0.008559
-0.007982
-0.010288
-0.007982
-0.010864
-0.012017
-0.012017
-0.011441
-0.011441
-0.010864
-0.010288
-0.007982
-0.009711
-0.009135
-0.009711
-0.006829
-0.006829
-0.007982
-0.005676
-0.005100
-0.005100
-0.006253
-0.003947
-0.002218
-0.000488
0.001818
0.004124
-0.001641
-0.012594
-0.015476
-0.012017
-0.009135
-0.008559
-0.006829
-0.003947
-0.004523
-0.005676
-0.002794
-0.002218
-0.002218
-0.000488
0.000665
0.008735
0.018535
0.021417
-0.037382
-0.108863
-0.083499
-0.009711
0.032370
0.036982
0.027182
0.009888
0.004124
0.006429
0.004124
0.005853
0.003547
0.002971
0.001818
-0.000488
0.001241
0.000088
0.000088
-0.001641
-0.002218
0.000088
-0.002218
-0.002794
-0.002218
-0.005100
-0.003947
-0.003947
-0.003947
-0.002794
-0.005100
-0.004523
-0.003947
-0.003370
-0.001641
-0.001065
-0.001065
-0.001065
0.000088
0.000088
0.001241
0.000665
0.001241
0.002394
0.004700
0.005276
0.005276
0.005276
0.006429
0.009888
0.011041
0.014500
0.012194
0.001818
-0.006253
-0.003370
-0.001641
0.002394
0.002971
0.002971
0.004124
0.004700
0.005853
0.005276
0.004700
0.005853
0.006429
0.011618
0.019688
0.034100
0.013923
-0.066205
-0.093875
-0.036805
0.019112
0.041594
0.036405
0.019688
0.013923
0.011618
0.009312
0.007582
0.007006
0.006429
0.007006
0.004700
0.003547
0.002971
0.000665
0.001818
0.000665
-0.001641
0.000665
0.000088
0.000665
0.000088
-0.000488
0.000088
-0.002794
-0.001065
0.000088
-0.001065
-0.001641
-0.002218
-0.002794
-0.002218
-0.004523
-0.002218
-0.002794
-0.001065
-0.000488
0.000088
0.000665
0.001818
0.001241
0.001241
0.000665
0.000665
0.001241
0.004124
0.006429
0.008159
0.008735
-0.001641
-0.011441
-0.011441
-0.007406
-0.005100
-0.003947
-0.005100
-0.001065
-0.001641
-0.001065
0.002394
0.000665
0.000088
-0.000488
0.004124
0.013347
0.028335
0.015076
-0.058711
-0.101945
-0.043146
0.019112
0.047935
0.040441
0.026606
0.012194
0.012770
0.009888
0.008735
0.008735
0.006429
0.006429
0.003547
0.002971
0.002394
0.002394
0.000088
0.001241
-0.001065
-0.001065
-0.003370
-0.001641
-0.002218
-0.001641
0.000665
0.000088
0.000088
0.000665
-0.001065
-0.002218
-0.002794
-0.003947
-0.002794
-0.001641
-0.000488
0.000088
0.000665
0.001241
0.001818
0.002971
0.002394
0.001818
0.002394
0.001818
0.002971
0.004700
0.005853
0.007006
0.007582
0.009888
0.005276
-0.002794
-0.007406
-0.005676
-0.001641
-0.000488
0.000088
0.002971
0.002971
0.002971
0.002394
0.003547
0.004124
0.002971
0.005853
0.010465
0.020264
0.026606
-0.018358
-0.093298
-0.083499
-0.016053
0.030641
0.038135
0.030064
0.015653
0.013347
0.011618
0.009888
0.007006
0.009312
0.008735
0.009312
0.009312
0.008735
0.008159
0.004700
0.005853
0.004700
0.004124
0.000665
0.002394
0.002394
0.002394
0.003547
0.004124
0.006429
0.004700
0.005276
0.003547
0.001818
0.000088
0.001241
0.000088
-0.000488
-0.000488
-0.000488
-0.001065
-0.001641
-0.001641
-0.002218
-0.002218
-0.003370
-0.002794
-0.003947
-0.005100
-0.005100
-0.003370
-0.001641
-0.001641
0.001241
-0.004523
-0.017205
-0.017782
-0.013747
-0.012594
-0.010864
-0.008559
-0.009135
-0.009135
-0.007982
-0.007982
-0.006253
-0.005100
-0.005676
-0.003370
0.007582
0.026029
0.028335
-0.044299
-0.122121
-0.078310
-0.006253
0.038711
0.041594
0.030064
0.012770
0.009888
0.008159
0.005276
0.005853
0.002394
0.001818
0.000665
0.000088
0.000088
-0.001641
-0.001065
-0.000488
-0.005676
-0.003370
-0.003370
-0.004523
-0.003947
-0.005100
-0.003370
-0.002794
-0.002794
-0.002218
-0.002794
-0.005100
-0.004523
-0.003947
-0.001065
0.000088
0.001241
0.002394
0.000088
0.004700
0.004124
0.003547
0.004124
0.004124
0.004124
0.002971
0.002394
0.004124
0.002971
0.004700
0.007006
0.008159
0.011618
0.008159
-0.002218
-0.009135
-0.005676
-0.003370
-0.000488
0.001241
0.001241
0.004124
0.004124
0.006429
0.005276
0.006429
0.008159
0.008159
0.013347
0.018535
0.023723
-0.004523
-0.067358
-0.059864
0.000088
0.036982
0.046205
0.035252
0.022570
0.019112
0.017382
0.014500
0.014500
0.012770
0.011618
0.012194
0.010465
0.011041
0.009888
0.008735
0.009312
0.008159
0.006429
0.003547
0.000665
0.002971
-0.000488
-0.001065
-0.001065
-0.001641
-0.001641
-0.003947
-0.003370
-0.003947
-0.003370
-0.001641
-0.000488
-0.001641
0.000665
-0.002218
-0.000488
0.000665
-0.000488
-0.001641
-0.003370
-0.004523
-0.003947
-0.006253
-0.004523
-0.005676
-0.003947
-0.001641
-0.001641
-0.002218
-0.008559
-0.017205
-0.015476
-0.012594
-0.009711
-0.007406
-0.005676
-0.004523
-0.002218
-0.002794
-0.001641
-0.002794
-0.002218
-0.002794
0.000088
0.005276
0.011618
0.001241
-0.051217
-0.090416
-0.028158
0.018535
0.039288
0.036405
0.022570
0.009888
0.009312
0.006429
0.007006
0.008159
0.007006
0.007006
0.006429
0.004700
0.008735
0.004700
0.002971
0.001818
0.001818
0.000665
0.000088
-0.002218
-0.001641
-0.003947
-0.003370
-0.003370
-0.005676
-0.004523
-0.007406
-0.006253
-0.007982
-0.006829
-0.003947
-0.003947
-0.003370
-0.003370
-0.005676
-0.005100
-0.005100
-0.005100
-0.002794
-0.003947
-0.005100
-0.004523
-0.005676
-0.003370
-0.003370
-0.002218
0.000088
-0.003370
-0.007982
-0.010288
-0.009711
-0.004523
-0.004523
0.001818
0.001241
0.001241
0.000088
0.001241
0.003547
0.002971
0.001818
0.001818
0.005853
0.009888
0.009312
-0.013170
-0.062746
-0.059864
0.003547
0.033523
0.045052
0.035829
0.023723
0.011618
0.009888
0.009312
0.007582
0.008159
0.006429
0.009312
0.009888
0.008735
0.008159
0.005853
0.007582
0.003547
0.001241
0.002394
0.000665
-0.002794
-0.003370
-0.006253
-0.005100
-0.006253
-0.006253
-0.009135
-0.009711
-0.007982
-0.007406
-0.006253
-0.004523
-0.002218
-0.001065
0.000088
0.000088
-0.000488
-0.002218
0.000088
0.000088
0.000088
-0.003370
-0.003947
-0.005100
-0.005100
-0.004523
-0.003947
-0.004523
-0.009711
-0.014900
-0.014323
-0.010864
-0.007982
-0.007406
-0.004523
-0.002794
-0.003947
-0.003947
-0.002794
-0.001641
-0.002218
-0.001641
-0.000488
0.005276
0.008735
-0.004523
-0.069087
-0.111745
-0.052946
0.008159
0.029488
0.022570
0.013923
0.005853
0.005276
0.003547
0.002971
0.004124
0.001818
0.002394
0.002971
0.001241
0.002394
0.001241
0.002394
0.002971
0.002394
0.004124
0.004700
0.005276
0.007006
0.005276
0.005276
0.005276
0.005276
0.005276
0.003547
0.002394
0.001818
0.002394
0.002971
0.002394
0.003547
0.004124
0.003547
0.006429
0.005276
0.002971
0.004124
0.005853
0.005853
0.005276
0.005853
0.004124
0.002971
0.005276
0.006429
0.005853
0.008735
0.003547
-0.002218
-0.003370
-0.001065
0.000665
0.004124
0.008159
0.006429
0.007582
0.009888
0.012194
0.012194
0.012770
0.011041
0.012194
0.019112
0.027758
0.015653
-0.053523
-0.108286
-0.059864
0.012194
0.042170
0.032947
0.019688
0.017382
0.015076
0.017382
0.011618
0.011618
0.013923
0.013347
0.010465
0.009312
0.013923
0.008735
0.010465
0.012770
0.011618
0.012770
0.015076
0.012770
0.017382
0.018535
0.018535
0.018535
0.020841
0.021417
0.017382
0.016229
0.012770
0.011041
0.013347
0.011618
0.007582
0.006429
0.005853
0.004124
0.001818
-0.000488
-0.002218
-0.003947
-0.003370
-0.004523
-0.006253
-0.006829
-0.009711
-0.010864
-0.011441
-0.010288
-0.011441
-0.011441
-0.013170
-0.018358
-0.025852
-0.027582
-0.026429
-0.020664
-0.021241
-0.020088
-0.019511
-0.018358
-0.017782
-0.016629
-0.015476
-0.014323
-0.012594
-0.008559
0.001818
0.009888
-0.018358
-0.095028
-0.117510
-0.044299
0.012194
0.030064
0.023723
0.012194
0.008159
0.007582
0.006429
0.007006
0.007582
0.006429
0.008735
0.009312
0.007582
0.007006
0.008159
0.008159
0.009312
0.009312
0.011618
0.010465
0.012770
0.015076
0.013347
0.014500
0.015653
0.013347
0.012770
0.008159
0.007582
0.004700
0.003547
0.004124
0.002394
0.004124
0.004700
0.005853
0.008735
0.006429
0.008159
0.008159
0.008735
0.010465
0.010465
0.009888
0.009312
0.008735
0.008735
0.007582
0.007582
0.007582
0.009312
0.009312
0.009888
0.002971
-0.002794
-0.002218
-0.000488
0.004124
0.003547
0.004700
0.004124
0.004700
0.005853
0.005853
0.004124
0.004700
0.003547
0.007582
0.014500
0.022570
-0.007982
-0.086381
-0.095028
-0.024699
0.024876
0.034676
0.025453
0.013923
0.009312
0.008735
0.005853
0.006429
0.005276
0.004700
0.004124
0.001818
-0.000488
-0.001065
-0.001641
-0.003947
-0.003947
-0.006253
-0.003947
-0.005100
-0.003947
-0.004523
-0.005100
-0.002794
-0.003370
-0.003947
-0.003947
-0.005676
-0.004523
-0.005676
-0.003370
-0.000488
0.000088
0.002971
0.002971
0.005276
0.007582
0.010465
0.008735
0.011041
0.012194
0.011618
0.010465
0.009888
0.009888
0.007006
0.007006
0.006429
0.005853
0.004124
0.001818
-0.003947
-0.014323
-0.011441
-0.008559
-0.007406
-0.005676
0.003547
-0.001065
0.000088
-0.001065
0.001241
0.002394
0.003547
0.004124
0.007582
0.012770
0.017959
-0.003370
-0.055828
-0.073699
-0.002218
0.031217
0.044476
0.035829
0.022570
0.009888
0.007006
0.005276
0.001241
0.001241
-0.002218
0.000088
-0.001641
-0.002218
-0.002794
-0.003947
-0.002794
-0.004523
-0.005676
-0.005676
-0.009711
-0.010288
-0.010288
-0.009711
-0.009711
-0.010288
-0.011441
-0.010288
-0.014323
-0.014323
-0.014323
-0.012594
-0.011441
-0.009711
-0.007982
-0.006253
-0.006253
-0.004523
-0.007982
-0.005676
-0.005100
-0.007406
-0.005100
-0.005676
-0.006253
-0.008559
-0.008559
-0.008559
-0.007982
-0.006253
-0.005676
-0.003370
-0.001065
0.000088
-0.007982
-0.015476
-0.017205
-0.014900
-0.010864
-0.007406
-0.006253
-0.005100
-0.005100
-0.004523
-0.002794
-0.002218
-0.002794
-0.001641
0.000665
0.007582
0.017382
0.009888
-0.050640
-0.093875
-0.047758
0.009888
0.035829
0.026606
0.013923
0.007006
0.005276
0.005853
0.002394
0.002971
0.001818
0.002971
0.000665
-0.000488
-0.001065
-0.000488
-0.001065
-0.001065
-0.002794
-0.002794
-0.005676
-0.005676
-0.005100
-0.006829
-0.004523
-0.007406
-0.006253
-0.004523
-0.007406
-0.006829
-0.005676
-0.005676
-0.004523
-0.003947
-0.002218
-0.002218
-0.000488
0.000088
0.000088
0.001241
0.001241
0.000665
0.002394
0.001241
0.002971
0.001818
0.000088
0.001818
0.002394
0.005853
0.006429
0.008735
0.003547
-0.005100
-0.012017
-0.009711
-0.005676
-0.005100
-0.000488
-0.001065
0.000665
-0.002218
-0.001641
-0.000488
0.000665
0.000088
0.000665
0.002394
0.007006
0.017382
0.002971
-0.054675
-0.078887
-0.017782
0.025453
0.043899
0.032947
0.019688
0.008735
0.008735
0.005853
0.005276
0.005276
0.001818
0.003547
0.004124
0.002394
0.004124
0.000088
0.001241
0.000088
-0.000488
-0.003370
-0.003947
-0.005676
-0.006829
-0.009135
-0.010288
-0.009135
-0.010288
-0.009135
-0.008559
-0.009711
-0.007982
-0.006829
-0.002794
-0.002794
-0.000488
0.001241
0.002394
0.001818
0.003547
0.004124
0.004124
0.004700
0.004124
0.002971
0.004124
0.003547
0.003547
0.004124
0.006429
0.006429
0.008735
0.009888
0.005276
-0.005100
-0.007982
-0.005676
-0.002794
0.000088
0.002394
0.004124
0.000088
0.007006
0.003547
0.005276
0.004700
0.004124
0.004124
0.009888
0.012194
0.018535
-0.006829
-0.070240
-0.069663
-0.000488
0.032947
0.047358
0.030641
0.018535
0.009888
0.008159
0.005276
0.004700
0.004700
0.002971
0.004124
0.001241
0.000088
0.000088
-0.001065
-0.001641
-0.002218
-0.002218
-0.003370
-0.005100
-0.003947
-0.007406
-0.006253
-0.005100
-0.007406
-0.005676
-0.007406
-0.007406
-0.005676
-0.003370
-0.002218
0.000665
0.000665
0.002394
0.002971
0.004124
0.003547
0.002394
0.002971
0.002394
0.001241
0.002394
0.001818
0.001241
-0.000488
-0.000488
-0.000488
-0.002794
-0.001641
0.002394
0.003547
0.004700
-0.001641
-0.009135
-0.013747
-0.010288
-0.008559
-0.006253
-0.006253
-0.005676
-0.003947
-0.004523
-0.004523
-0.002794
-0.003370
-0.002218
-0.001641
0.007006
0.014500
0.012194
-0.039687
-0.103675
-0.077157
-0.007406
0.032947
0.027182
0.016229
0.009888
0.007582
0.006429
0.004700
0.004124
0.003547
0.002971
0.002394
0.001241
0.002394
0.000665
-0.001065
0.001818
0.001241
-0.000488
0.000088
-0.000488
0.000088
-0.001065
0.000088
-0.000488
-0.001065
0.000665
-0.001641
-0.000488
-0.000488
-0.001065
0.001241
0.001241
0.001241
0.001818
0.004124
0.005853
0.004124
0.005276
0.004700
0.003547
0.003547
0.004124
0.002971
0.003547
0.004700
0.004700
0.004700
0.004700
0.006429
0.005853
0.006429
0.008159
0.008159
0.010465
0.005853
-0.002794
-0.005676
-0.003947
-0.000488
0.000665
0.004124
0.003547
0.003547
0.004124
0.005276
0.004700
0.005276
0.007006
0.008159
0.012770
0.020841
0.023147
-0.024123
-0.091569
-0.076005
-0.003370
0.040441
0.038711
0.026029
0.016229
0.014500
0.013347
0.011618
0.011618
0.011041
0.009312
0.009888
0.008159
0.008159
0.006429
0.005853
0.004124
0.002394
0.002971
0.002971
0.002971
0.001241
0.001818
0.001818
-0.000488
-0.002218
-0.002218
-0.001641
-0.004523
-0.003370
-0.002794
-0.001641
-0.000488
-0.000488
0.002394
0.001241
0.001818
0.001241
0.001241
0.001818
0.001241
0.000665
0.001241
0.001241
0.000665
0.001241
0.002394
0.001241
0.001818
0.001241
0.001241
0.001241
0.001241
0.003547
0.005853
0.007006
0.008159
-0.001641
-0.008559
-0.006253
-0.005676
-0.002794
-0.001641
-0.000488
-0.000488
0.000665
0.000665
0.001818
0.001818
0.004700
0.002971
0.005853
0.013923
0.024300
0.014500
-0.047181
-0.083499
-0.030464
0.023147
0.047358
0.037558
0.023723
0.012194
0.011041
0.010465
0.008735
0.008159
0.006429
0.007582
0.006429
0.003547
0.004700
0.001818
0.001241
0.000088
0.000088
0.000665
-0.002794
-0.003370
-0.003370
-0.005676
-0.005676
-0.008559
-0.006829
-0.007982
-0.007982
-0.008559
-0.007406
-0.006253
-0.005100
-0.005100
-0.002218
-0.002794
-0.001641
0.000088
0.000088
0.000088
0.000088
-0.000488
0.000088
-0.001641
-0.002218
-0.000488
-0.002794
-0.001641
-0.000488
-0.001641
-0.000488
-0.001641
0.000088
-0.001065
0.000665
0.002971
0.004700
0.001241
-0.009711
-0.014323
-0.010864
-0.008559
-0.005100
0.000665
0.004700
0.006429
0.004700
-0.008559
-0.013747
-0.029888
-0.065628
-0.092722
-0.119239
-0.146909
-0.168815
-0.179768
-0.190720
-0.151521
-0.053523
-0.000488
0.013923
0.020264
0.025453
0.027758
0.032370
0.034100
0.035829
0.041017
0.046205
0.050240
0.054276
0.057158
0.064076
0.068111
0.072722
0.075028
0.079064
0.080793
0.079640
0.077334
0.073875
0.065805
0.059464
0.050817
0.041017
0.030641
0.021417
0.012194
0.005853
0.000665
-0.002218
-0.003947
-0.005676
-0.004523
-0.006829
-0.006253
-0.006829
-0.006253
-0.006253
-0.005676
-0.005676
-0.006253
-0.005676
-0.005676
-0.006253
-0.006829
-0.006829
-0.007406
-0.007406
-0.007982
-0.007406
-0.007982
-0.007982
-0.007406
-0.009711
-0.007982
-0.008559
-0.006253
-0.005100
-0.002794
0.000088
-0.003370
-0.016629
-0.018358
-0.017205
-0.015476
-0.013170
-0.010864
-0.011441
-0.010864
-0.009135
-0.008559
-0.008559
-0.006253
-0.005100
-0.004523
0.001241
0.006429
0.013923
-0.014900
-0.081193
-0.069087
-0.005100
0.034676
0.042746
0.027182
0.011618
0.006429
0.007006
0.003547
0.004700
0.001818
0.001818
0.002971
-0.000488
0.001241
0.000088
-0.001641
-0.001065
-0.003947
-0.003370
-0.004523
-0.005676
-0.006253
-0.007982
-0.008559
-0.010288
-0.010864
-0.009711
-0.011441
-0.010864
-0.009135
-0.009711
-0.006829
-0.005676
-0.005676
-0.001065
0.000665
0.000665
0.002394
0.002971
0.004700
0.003547
0.002394
0.004124
0.003547
0.004124
0.004124
0.003547
0.004124
0.004124
0.004124
0.004124
0.002971
0.004700
0.003547
0.004700
0.007006
0.007006
0.009888
0.011041
0.012770
0.000665
-0.005676
-0.005100
-0.001641
0.000665
0.002971
0.003547
0.004700
0.004124
0.003547
0.005276
0.006429
0.005853
0.005276
0.009312
0.017382
0.024876
0.015076
-0.041417
-0.082346
-0.028158
0.027758
0.052546
0.046205
0.031794
0.018535
0.015653
0.013923
0.011041
0.009888
0.011041
0.009888
0.008735
0.008159
0.008735
0.006429
0.006429
0.008159
0.003547
0.003547
0.002394
0.001818
0.001241
-0.001065
-0.002794
-0.002794
-0.002794
-0.002218
-0.002218
-0.001641
-0.003370
-0.002218
0.001241
0.001818
0.004124
0.004700
0.004700
0.005276
0.005853
0.007006
0.007582
0.005853
0.007582
0.006429
0.006429
0.006429
0.005853
0.005853
0.006429
0.005853
0.005853
0.002971
0.003547
0.003547
0.004700
0.004700
0.006429
0.007582
0.008735
0.010465
0.009312
-0.004523
-0.006829
-0.006253
-0.003370
-0.001065
0.001818
0.001241
0.000665
0.001241
0.002394
0.001818
0.001818
0.003547
0.002394
0.008735
0.014500
0.022570
0.002394
-0.064475
-0.082922
-0.020664
0.031794
0.046782
0.035829
0.018535
0.013347
0.011618
0.008159
0.008159
0.008159
0.005853
0.007006
0.005276
0.005853
0.004700
0.000665
0.001241
0.000665
0.000088
0.000665
0.000088
-0.002218
-0.002218
-0.004523
-0.003370
-0.004523
-0.005676
-0.006253
-0.008559
-0.007982
-0.007406
-0.006829
-0.006253
-0.004523
-0.003370
-0.001641
-0.002218
-0.002218
-0.002218
-0.002218
-0.003370
-0.004523
-0.005100
-0.006253
-0.006829
-0.007406
-0.008559
-0.009135
-0.008559
-0.009711
-0.009711
-0.010864
-0.011441
-0.010288
-0.010864
-0.009711
-0.010288
-0.009711
-0.010288
-0.010864
-0.008559
-0.006253
-0.006253
-0.002218
-0.007406
-0.018935
-0.022394
-0.020088
-0.017205
-0.016053
-0.015476
-0.016053
-0.016053
-0.014900
-0.015476
-0.014323
-0.014323
-0.014323
-0.014900
-0.009135
-0.003370
0.007006
-0.024699
-0.102522
-0.099639
-0.034499
0.011618
0.025453
0.016806
-0.003370
-0.009711
-0.010288
-0.012017
-0.011441
-0.011441
-0.013170
-0.010864
-0.010864
-0.010288
-0.010288
-0.011441
-0.009135
-0.009135
-0.009135
-0.008559
-0.009135
-0.007982
-0.007406
-0.006253
-0.005100
-0.005100
-0.002794
-0.003947
-0.003947
-0.003370
-0.005100
-0.002218
-0.001641
-0.002218
-0.000488
-0.001641
-0.000488
0.001241
0.004124
0.008159
0.009312
0.009888
0.011618
0.009312
