-0.010155
-0.000175
-0.005165
0.004816
0.004816
0.004816
0.009806
0.009806
-0.000175
0.004816
0.014796
0.044738
0.059709
0.049728
0.024777
0.004816
-0.010155
-0.005165
-0.005165
-0.015146
-0.000175
-0.005165
-0.010155
-0.010155
-0.010155
-0.010155
0.069690
0.184467
-0.025126
-0.494216
-0.484235
-0.164855
-0.035107
-0.025126
-0.010155
-0.000175
0.004816
0.009806
-0.000175
0.009806
-0.005165
0.004816
0.014796
0.014796
0.004816
0.024777
0.024777
0.029767
0.029767
0.014796
0.019786
0.009806
0.004816
-0.010155
-0.020136
-0.020136
-0.010155
-0.000175
0.004816
0.014796
0.029767
0.004816
-0.000175
0.004816
0.009806
0.014796
0.009806
0.019786
0.024777
0.029767
0.034757
0.049728
0.039748
0.044738
0.039748
0.034757
0.029767
0.024777
0.029767
0.034757
0.034757
0.044738
0.054719
0.049728
0.044738
0.049728
0.049728
0.054719
0.049728
0.054719
0.054719
0.054719
0.044738
0.039748
0.034757
0.039748
0.034757
0.034757
0.039748
0.034757
0.039748
0.034757
0.039748
0.044738
0.039748
0.049728
0.034757
0.054719
0.029767
0.034757
0.044738
0.049728
0.059709
0.079670
0.069690
0.064699
0.034757
0.029767
0.014796
0.019786
0.009806
0.024777
0.009806
0.014796
0.014796
0.014796
0.019786
0.064699
0.149535
0.049728
-0.359477
-0.449303
-0.204778
-0.035107
-0.020136
0.014796
0.014796
0.019786
0.029767
0.034757
0.024777
0.019786
0.014796
0.029767
0.024777
0.024777
0.019786
0.024777
0.024777
0.024777
0.024777
0.024777
0.019786
0.009806
-0.000175
-0.000175
-0.005165
-0.000175
-0.000175
0.014796
-0.005165
0.004816
0.004816
0.009806
-0.000175
0.009806
0.009806
0.004816
0.004816
0.014796
0.029767
0.019786
0.009806
0.014796
0.004816
0.004816
-0.020136
-0.000175
-0.010155
0.004816
0.004816
0.019786
0.014796
0.014796
0.014796
0.019786
0.014796
0.009806
0.019786
0.004816
0.004816
-0.000175
0.004816
0.004816
0.014796
0.014796
0.024777
0.024777
0.009806
-0.005165
0.014796
0.009806
0.019786
0.019786
0.014796
0.019786
0.029767
0.014796
0.019786
0.004816
0.024777
0.024777
0.044738
0.039748
0.044738
0.024777
0.004816
-0.015146
-0.005165
0.004816
-0.005165
-0.010155
-0.010155
-0.020136
-0.025126
-0.040097
-0.030117
-0.010155
0.084661
0.029767
-0.309574
-0.444313
-0.269652
-0.099981
-0.065049
-0.045088
-0.030117
-0.025126
-0.025126
-0.035107
-0.025126
-0.010155
-0.005165
0.004816
-0.005165
0.004816
-0.005165
0.004816
-0.000175
-0.005165
-0.020136
-0.025126
-0.010155
-0.000175
-0.000175
-0.005165
-0.015146
-0.005165
-0.005165
-0.005165
-0.010155
-0.015146
-0.010155
-0.005165
-0.015146
-0.005165
-0.015146
-0.015146
-0.015146
-0.010155
-0.010155
-0.005165
-0.010155
-0.010155
-0.020136
-0.020136
-0.015146
-0.005165
-0.010155
-0.000175
-0.000175
-0.015146
-0.020136
-0.030117
-0.015146
-0.020136
-0.030117
-0.030117
-0.025126
-0.015146
-0.025126
-0.015146
-0.000175
0.009806
0.019786
0.014796
0.014796
0.009806
0.004816
0.009806
-0.005165
0.009806
0.004816
0.004816
-0.000175
-0.005165
-0.000175
0.004816
-0.000175
0.004816
0.019786
0.024777
0.049728
0.054719
0.039748
-0.005165
-0.020136
-0.035107
-0.030117
-0.020136
-0.005165
-0.005165
-0.000175
-0.000175
-0.005165
-0.015146
-0.025126
0.039748
0.119593
-0.124933
-0.434332
-0.449303
-0.149884
-0.055068
-0.040097
-0.025126
-0.025126
-0.015146
-0.015146
-0.010155
-0.005165
-0.015146
-0.015146
0.009806
0.009806
0.004816
0.004816
0.004816
-0.000175
-0.000175
-0.005165
-0.015146
-0.010155
-0.000175
-0.015146
-0.005165
-0.005165
-0.010155
-0.000175
-0.000175
-0.005165
-0.000175
0.004816
0.014796
0.009806
0.014796
0.004816
0.009806
0.019786
0.009806
0.004816
0.014796
0.009806
0.014796
-0.000175
0.009806
0.009806
0.019786
0.024777
0.024777
0.019786
0.024777
0.024777
0.029767
0.024777
0.014796
0.024777
0.014796
0.019786
0.014796
0.019786
0.029767
0.014796
0.014796
0.009806
0.014796
0.009806
0.009806
0.019786
0.024777
0.034757
0.009806
0.014796
-0.000175
0.009806
0.009806
0.009806
0.014796
0.019786
0.019786
0.024777
0.039748
0.039748
0.044738
0.034757
0.009806
-0.015146
-0.010155
-0.010155
-0.025126
0.009806
0.019786
0.019786
0.024777
0.014796
0.024777
0.019786
0.094641
0.184467
-0.050078
-0.499206
-0.464274
-0.134913
-0.020136
-0.005165
-0.000175
0.009806
0.004816
0.009806
0.009806
0.014796
0.004816
0.009806
0.014796
0.004816
0.014796
0.004816
0.009806
0.009806
-0.000175
0.009806
-0.000175
-0.010155
-0.010155
-0.010155
-0.005165
-0.005165
-0.005165
-0.005165
-0.010155
-0.010155
0.004816
0.004816
0.019786
0.014796
0.004816
0.004816
0.009806
-0.000175
0.004816
0.019786
0.029767
0.029767
0.029767
0.029767
0.029767
0.024777
0.019786
0.024777
0.029767
0.034757
0.044738
0.044738
0.044738
0.034757
0.024777
0.014796
-0.000175
0.004816
0.009806
0.009806
0.029767
0.014796
0.024777
0.029767
0.029767
0.029767
0.004816
0.004816
-0.000175
-0.005165
0.004816
0.009806
0.014796
0.014796
0.014796
0.014796
0.024777
0.034757
0.034757
0.034757
0.049728
0.054719
0.069690
0.054719
0.034757
0.009806
-0.000175
-0.020136
-0.020136
-0.025126
-0.025126
-0.025126
-0.030117
-0.000175
-0.005165
0.004816
0.019786
0.124583
0.079670
-0.294603
-0.444313
-0.269652
-0.075029
-0.020136
-0.005165
0.004816
-0.005165
0.014796
-0.000175
0.009806
0.014796
-0.000175
0.004816
0.004816
0.004816
-0.000175
-0.010155
0.009806
0.009806
0.009806
0.014796
0.009806
0.019786
0.004816
-0.000175
-0.015146
-0.025126
-0.015146
-0.015146
-0.025126
-0.015146
-0.010155
-0.005165
-0.005165
-0.005165
-0.005165
-0.000175
-0.000175
0.004816
0.014796
0.019786
0.004816
0.014796
0.004816
0.014796
0.009806
0.009806
0.014796
0.009806
0.024777
0.014796
0.019786
0.014796
0.034757
0.024777
0.029767
0.029767
0.004816
0.009806
-0.000175
-0.010155
-0.015146
-0.005165
-0.000175
-0.000175
-0.000175
0.014796
0.019786
0.024777
0.024777
0.019786
0.019786
0.014796
0.009806
0.024777
0.019786
0.014796
0.009806
0.004816
0.019786
0.019786
0.024777
0.034757
0.059709
0.054719
0.034757
0.014796
0.009806
-0.000175
-0.000175
0.004816
0.004816
-0.005165
0.004816
0.009806
0.004816
0.024777
0.014796
0.089651
0.139554
-0.154874
-0.494216
-0.369458
-0.080020
-0.005165
0.009806
0.014796
0.009806
-0.000175
0.014796
0.004816
0.029767
0.034757
0.024777
0.029767
0.024777
0.024777
0.004816
0.004816
0.009806
0.009806
0.009806
0.014796
0.004816
-0.015146
-0.010155
-0.005165
-0.005165
-0.005165
-0.015146
-0.015146
-0.015146
-0.020136
-0.010155
0.004816
0.004816
0.024777
0.019786
0.024777
0.024777
0.019786
0.019786
0.014796
0.024777
0.024777
0.019786
0.019786
0.024777
0.029767
0.024777
0.034757
0.029767
0.034757
0.034757
0.054719
0.039748
0.059709
0.054719
0.049728
0.059709
0.049728
0.054719
0.049728
0.039748
0.034757
0.029767
0.044738
0.009806
0.019786
0.004816
-0.000175
0.009806
0.034757
0.019786
0.019786
0.019786
0.009806
0.019786
0.014796
0.019786
0.044738
0.059709
0.074680
0.074680
0.059709
0.019786
-0.000175
-0.010155
-0.000175
-0.000175
-0.000175
-0.010155
0.009806
0.014796
0.009806
0.019786
0.014796
0.074680
0.124583
-0.129923
-0.384429
-0.379438
-0.104971
-0.030117
-0.005165
-0.020136
-0.000175
0.004816
0.014796
0.009806
0.009806
0.014796
0.019786
0.024777
0.019786
0.029767
0.034757
0.039748
0.039748
0.054719
0.044738
0.044738
0.039748
0.029767
0.019786
0.014796
0.019786
0.014796
0.024777
0.019786
0.024777
0.019786
0.014796
0.014796
0.019786
0.019786
0.014796
0.019786
0.024777
0.029767
0.034757
0.034757
0.024777
0.014796
0.024777
0.024777
0.019786
0.024777
0.019786
0.009806
0.019786
0.024777
0.029767
0.024777
0.014796
0.004816
-0.000175
-0.010155
-0.025126
-0.005165
0.004816
-0.000175
-0.005165
-0.015146
-0.010155
-0.010155
-0.000175
0.014796
0.009806
0.004816
0.009806
-0.005165
0.009806
0.009806
0.004816
-0.000175
-0.010155
-0.010155
-0.010155
-0.015146
-0.000175
0.004816
0.009806
-0.005165
-0.040097
-0.025126
-0.010155
-0.005165
-0.000175
-0.005165
-0.005165
0.004816
0.004816
-0.005165
-0.015146
-0.010155
0.054719
0.099631
-0.189807
-0.509187
-0.454293
-0.144894
-0.075029
-0.045088
-0.020136
-0.010155
-0.010155
-0.000175
-0.000175
-0.000175
-0.005165
-0.010155
-0.005165
-0.020136
-0.020136
-0.030117
-0.020136
-0.020136
-0.005165
-0.000175
0.014796
0.014796
0.029767
0.029767
0.029767
0.014796
0.004816
-0.005165
-0.005165
-0.015146
-0.010155
-0.015146
-0.020136
-0.025126
-0.015146
0.004816
0.014796
0.024777
0.014796
0.019786
0.024777
0.044738
0.049728
0.059709
0.059709
0.049728
0.049728
0.049728
0.044738
0.039748
0.024777
0.009806
0.004816
0.004816
-0.010155
-0.000175
-0.000175
-0.005165
0.004816
0.009806
0.009806
0.014796
0.004816
0.014796
0.009806
0.014796
0.019786
0.009806
-0.000175
-0.015146
-0.000175
-0.015146
-0.005165
-0.015146
-0.015146
-0.015146
-0.025126
-0.015146
-0.015146
-0.000175
0.009806
0.009806
-0.000175
-0.020136
-0.040097
-0.050078
-0.050078
-0.030117
-0.030117
-0.015146
-0.010155
-0.020136
-0.015146
-0.030117
-0.015146
0.049728
0.154525
-0.109962
-0.569070
-0.509187
-0.149884
-0.035107
-0.030117
-0.020136
-0.015146
-0.020136
-0.005165
0.009806
0.009806
0.009806
0.009806
0.029767
0.019786
0.019786
0.014796
0.024777
0.024777
0.014796
0.009806
-0.000175
-0.005165
-0.005165
-0.015146
-0.020136
-0.015146
-0.020136
-0.000175
-0.010155
-0.005165
-0.005165
-0.000175
0.014796
0.004816
0.009806
0.014796
0.034757
0.034757
0.044738
0.039748
0.044738
0.029767
0.019786
0.039748
0.029767
0.034757
0.044738
0.059709
0.054719
0.054719
0.044738
0.029767
0.044738
0.044738
0.044738
0.054719
0.059709
0.059709
0.064699
0.049728
0.049728
0.039748
0.039748
0.024777
0.029767
0.039748
0.034757
0.049728
0.044738
0.049728
0.044738
0.039748
0.034757
0.039748
0.029767
0.019786
0.034757
0.019786
0.029767
0.049728
0.059709
0.069690
0.074680
0.054719
0.019786
-0.010155
-0.015146
-0.005165
-0.000175
-0.005165
-0.005165
-0.005165
-0.015146
-0.015146
-0.015146
-0.015146
0.064699
0.129573
-0.119942
-0.454293
-0.374448
-0.094991
-0.035107
-0.020136
-0.015146
-0.005165
-0.010155
0.009806
0.009806
0.009806
0.014796
0.004816
0.009806
0.009806
0.009806
-0.005165
0.009806
0.004816
-0.000175
0.004816
-0.000175
0.004816
0.004816
-0.005165
-0.020136
-0.025126
-0.025126
-0.035107
-0.020136
-0.015146
-0.020136
-0.015146
-0.015146
0.004816
0.009806
-0.005165
0.009806
-0.005165
-0.025126
-0.010155
-0.010155
-0.015146
-0.005165
-0.000175
0.004816
0.009806
0.014796
0.004816
0.019786
0.004816
0.004816
-0.005165
0.009806
0.014796
0.014796
0.019786
0.019786
-0.005165
0.014796
0.004816
0.004816
0.009806
-0.000175
0.009806
0.014796
0.014796
0.024777
0.019786
0.014796
0.014796
0.019786
0.019786
0.014796
0.024777
0.024777
0.024777
0.019786
0.019786
0.019786
0.029767
0.044738
0.054719
0.059709
0.049728
0.024777
0.004816
-0.005165
-0.005165
-0.005165
0.014796
0.014796
0.019786
0.024777
0.019786
0.029767
0.039748
0.119593
0.189457
-0.094991
-0.439322
-0.329535
-0.035107
0.009806
0.024777
0.014796
0.029767
0.029767
0.014796
0.024777
0.034757
0.039748
0.049728
0.054719
0.054719
0.059709
0.049728
0.044738
0.049728
0.039748
0.024777
0.019786
0.029767
0.024777
0.024777
0.014796
0.019786
-0.000175
-0.005165
-0.000175
-0.015146
-0.010155
-0.030117
-0.020136
-0.020136
-0.015146
-0.005165
-0.015146
0.014796
0.004816
-0.000175
0.009806
0.004816
-0.010155
-0.005165
-0.005165
-0.005165
-0.015146
-0.015146
-0.015146
-0.020136
-0.015146
-0.015146
-0.015146
-0.020136
-0.020136
-0.030117
-0.025126
-0.020136
-0.015146
-0.010155
-0.000175
-0.000175
0.004816
0.004816
-0.005165
-0.000175
-0.000175
-0.005165
0.009806
0.004816
0.004816
0.004816
0.004816
-0.000175
-0.000175
0.009806
-0.000175
-0.015146
-0.015146
-0.005165
0.004816
-0.000175
0.009806
-0.010155
-0.045088
-0.050078
-0.045088
-0.035107
-0.035107
-0.045088
-0.035107
-0.030117
-0.040097
-0.030117
-0.040097
-0.035107
0.039748
0.114602
-0.164855
-0.414371
-0.404390
-0.124933
-0.045088
-0.040097
-0.025126
-0.015146
-0.025126
-0.025126
-0.020136
-0.020136
-0.015146
-0.010155
0.004816
-0.000175
-0.000175
-0.010155
-0.000175
-0.000175
-0.010155
-0.010155
-0.000175
-0.005165
-0.000175
-0.000175
-0.005165
-0.005165
-0.010155
-0.010155
-0.010155
-0.015146
-0.020136
-0.020136
-0.015146
-0.020136
-0.020136
-0.010155
-0.015146
-0.005165
-0.015146
0.004816
0.019786
0.019786
0.024777
0.014796
0.009806
0.009806
0.009806
0.004816
-0.000175
-0.015146
-0.020136
-0.010155
-0.015146
-0.020136
-0.000175
-0.005165
-0.005165
-0.000175
0.014796
0.014796
0.019786
0.034757
0.009806
0.004816
0.009806
0.009806
0.014796
0.014796
0.019786
0.014796
0.019786
0.024777
0.019786
0.024777
0.019786
0.014796
0.009806
0.014796
0.039748
0.049728
0.054719
0.064699
0.029767
0.009806
-0.010155
-0.010155
-0.005165
-0.005165
0.009806
0.004816
0.009806
0.019786
0.034757
0.019786
0.064699
0.169496
-0.000175
-0.404390
-0.459283
-0.204778
-0.055068
-0.025126
-0.015146
-0.010155
-0.005165
-0.000175
-0.005165
0.004816
0.004816
-0.000175
-0.000175
0.004816
0.009806
0.004816
0.004816
-0.000175
-0.020136
-0.005165
-0.005165
-0.015146
-0.015146
-0.015146
-0.015146
-0.030117
-0.020136
-0.025126
-0.030117
-0.030117
-0.030117
-0.025126
-0.005165
-0.010155
-0.010155
-0.005165
0.004816
-0.000175
-0.005165
-0.005165
-0.005165
0.004816
0.004816
-0.000175
-0.005165
-0.000175
-0.010155
0.004816
-0.000175
-0.010155
-0.010155
-0.020136
-0.005165
0.004816
0.014796
0.019786
0.024777
0.019786
0.024777
0.019786
0.024777
0.014796
0.019786
0.009806
0.004816
0.009806
0.009806
0.014796
0.014796
0.029767
0.029767
0.029767
0.034757
0.034757
0.034757
0.024777
0.019786
0.029767
0.029767
0.034757
0.049728
0.059709
0.064699
0.079670
0.059709
0.039748
0.019786
0.014796
0.014796
0.029767
0.004816
0.019786
0.024777
0.024777
0.019786
0.019786
0.029767
0.094641
0.194447
-0.065049
-0.499206
-0.404390
-0.075029
-0.015146
0.004816
0.024777
0.019786
0.009806
0.014796
0.009806
0.024777
0.014796
0.014796
0.029767
0.014796
0.009806
0.009806
0.009806
0.029767
0.019786
0.009806
0.009806
-0.000175
0.014796
-0.000175
0.004816
-0.000175
-0.005165
-0.010155
-0.025126
-0.020136
-0.010155
-0.000175
-0.005165
0.004816
-0.010155
-0.005165
-0.000175
0.004816
0.004816
0.004816
0.009806
0.009806
0.009806
0.004816
0.004816
0.014796
0.014796
-0.005165
0.009806
0.019786
0.019786
0.009806
0.014796
0.014796
0.024777
0.024777
0.029767
0.024777
0.014796
0.019786
0.014796
0.024777
0.029767
0.029767
0.014796
0.009806
0.014796
0.019786
0.019786
0.024777
0.019786
0.029767
0.024777
0.019786
0.019786
0.024777
0.019786
0.014796
0.009806
0.024777
0.029767
0.054719
0.069690
0.054719
0.034757
0.004816
-0.005165
-0.010155
0.004816
-0.000175
0.004816
-0.000175
0.009806
-0.010155
0.004816
0.014796
0.059709
0.154525
-0.030117
-0.464274
-0.399400
-0.114952
-0.015146
-0.005165
0.009806
-0.000175
0.009806
0.019786
0.014796
0.019786
0.024777
0.029767
0.029767
0.029767
0.029767
0.024777
0.019786
0.029767
0.024777
0.024777
0.019786
0.009806
0.019786
0.004816
0.004816
0.004816
0.009806
0.004816
-0.000175
-0.005165
-0.000175
-0.010155
-0.000175
-0.000175
-0.005165
-0.000175
0.004816
0.004816
0.004816
0.009806
0.014796
0.004816
0.014796
0.009806
0.009806
0.034757
0.034757
0.034757
0.039748
0.034757
0.039748
0.024777
0.034757
0.039748
0.029767
0.024777
0.029767
0.034757
0.019786
0.014796
0.014796
0.004816
0.004816
0.019786
0.019786
0.029767
0.034757
0.024777
0.039748
0.019786
0.014796
0.019786
0.024777
0.034757
0.029767
0.029767
0.029767
0.019786
0.019786
0.019786
0.024777
0.044738
0.074680
0.069690
0.049728
0.019786
0.009806
0.004816
-0.000175
-0.000175
-0.005165
-0.010155
-0.015146
-0.035107
-0.020136
-0.010155
0.009806
0.084661
0.039748
-0.279632
-0.379438
-0.214758
-0.055068
-0.030117
-0.040097
-0.030117
-0.035107
-0.030117
-0.015146
-0.000175
0.004816
0.034757
0.029767
0.054719
0.044738
0.044738
0.044738
0.034757
0.019786
0.004816
0.004816
-0.000175
-0.015146
-0.030117
-0.035107
-0.025126
-0.025126
-0.020136
-0.015146
-0.005165
-0.005165
-0.000175
0.009806
-0.005165
0.004816
0.004816
-0.000175
-0.005165
-0.000175
-0.005165
-0.015146
-0.000175
-0.000175
-0.000175
-0.005165
-0.005165
-0.015146
0.004816
0.019786
0.024777
0.034757
0.029767
0.034757
0.034757
0.044738
0.044738
0.044738
0.039748
0.024777
0.024777
0.024777
0.029767
0.034757
0.034757
0.039748
0.044738
0.039748
0.064699
0.059709
0.049728
0.029767
0.029767
0.024777
0.024777
0.019786
0.024777
0.039748
0.034757
0.059709
0.069690
0.094641
0.084661
0.059709
0.044738
0.014796
0.004816
0.004816
-0.000175
0.004816
-0.000175
-0.000175
-0.010155
-0.000175
0.004816
0.019786
0.104622
0.084661
-0.224739
-0.364468
-0.234719
-0.050078
0.004816
0.014796
0.019786
0.014796
0.024777
0.019786
0.029767
0.024777
0.014796
0.014796
0.019786
0.024777
0.024777
0.024777
0.019786
0.009806
0.024777
0.014796
0.014796
0.019786
0.029767
0.034757
0.024777
0.029767
0.034757
0.029767
0.024777
0.029767
0.019786
0.014796
-0.000175
-0.000175
-0.000175
0.004816
0.014796
0.024777
0.019786
0.059709
0.059709
0.069690
0.069690
0.064699
0.054719
0.044738
0.029767
0.034757
0.024777
0.034757
0.034757
0.044738
0.034757
0.029767
0.029767
0.004816
0.009806
0.029767
0.034757
0.019786
0.014796
0.019786
0.019786
0.009806
0.004816
0.009806
0.009806
0.014796
0.014796
0.024777
0.024777
0.039748
0.029767
0.019786
-0.000175
-0.005165
-0.010155
0.004816
-0.000175
0.014796
0.039748
0.054719
0.039748
0.009806
-0.000175
-0.015146
-0.010155
-0.005165
-0.015146
-0.005165
-0.020136
-0.010155
-0.010155
-0.010155
-0.020136
0.064699
0.134564
-0.149884
-0.509187
-0.439322
-0.129923
-0.050078
-0.045088
-0.050078
-0.040097
-0.045088
-0.035107
-0.045088
-0.035107
-0.045088
-0.025126
-0.035107
-0.020136
-0.015146
-0.015146
-0.035107
-0.015146
-0.010155
-0.000175
0.004816
-0.030117
-0.020136
-0.015146
-0.025126
-0.030117
-0.015146
-0.010155
-0.005165
-0.010155
-0.020136
-0.015146
-0.020136
-0.015146
-0.015146
-0.000175
0.004816
0.004816
0.004816
0.019786
0.019786
0.019786
0.024777
0.029767
0.024777
0.034757
0.029767
0.004816
0.014796
0.014796
-0.000175
0.024777
0.019786
0.019786
0.024777
0.024777
0.024777
0.029767
0.019786
0.014796
0.009806
0.009806
-0.000175
-0.010155
-0.010155
-0.015146
-0.015146
-0.010155
-0.010155
0.009806
-0.000175
-0.000175
-0.010155
-0.000175
0.004816
0.004816
0.004816
0.004816
-0.005165
-0.000175
0.014796
0.034757
0.059709
0.049728
0.039748
0.004816
-0.010155
-0.020136
-0.015146
-0.020136
-0.015146
-0.015146
-0.020136
-0.015146
-0.020136
-0.020136
-0.005165
0.074680
0.114602
-0.299594
-0.584041
-0.384429
-0.080020
-0.025126
-0.000175
-0.000175
-0.000175
-0.020136
-0.005165
-0.015146
-0.015146
-0.025126
-0.020136
-0.020136
-0.010155
-0.015146
-0.005165
-0.010155
-0.015146
-0.020136
-0.020136
-0.015146
-0.025126
-0.020136
-0.025126
-0.025126
-0.015146
-0.025126
-0.030117
-0.025126
-0.020136
-0.010155
-0.015146
-0.025126
-0.040097
-0.010155
-0.010155
-0.010155
-0.005165
-0.010155
-0.005165
-0.005165
-0.000175
-0.000175
0.009806
0.019786
0.024777
0.029767
0.024777
0.024777
0.019786
0.014796
0.024777
0.014796
0.004816
-0.000175
0.004816
0.009806
-0.000175
-0.005165
-0.005165
0.004816
0.004816
0.019786
0.019786
0.019786
0.014796
0.019786
0.009806
0.009806
0.009806
0.014796
0.009806
0.004816
0.014796
0.024777
0.019786
0.019786
0.019786
0.019786
0.014796
0.049728
0.064699
0.064699
0.054719
0.034757
-0.005165
-0.015146
-0.010155
-0.005165
-0.020136
-0.005165
-0.005165
-0.005165
0.004816
0.009806
0.009806
0.054719
0.149535
0.059709
-0.384429
-0.514177
-0.259671
-0.060059
-0.020136
-0.005165
-0.000175
0.009806
0.019786
0.009806
0.004816
-0.010155
-0.010155
0.004816
-0.005165
-0.005165
-0.015146
-0.010155
-0.005165
-0.000175
-0.000175
-0.000175
-0.025126
-0.015146
-0.015146
-0.030117
-0.020136
-0.025126
-0.010155
-0.000175
-0.005165
-0.005165
-0.005165
-0.000175
-0.000175
0.009806
0.009806
-0.005165
-0.010155
-0.005165
-0.015146
-0.000175
0.004816
0.009806
0.009806
-0.000175
0.004816
0.004816
0.004816
0.014796
0.004816
-0.005165
-0.000175
0.014796
0.019786
0.039748
0.229380
0.448953
0.723420
0.828217
0.414021
-0.055068
-0.254681
-0.224739
-0.149884
-0.065049
-0.065049
-0.070039
-0.070039
-0.085010
-0.080020
-0.075029
-0.050078
-0.005165
-0.020136
-0.065049
-0.090000
-0.075029
-0.070039
-0.070039
-0.090000
-0.099981
-0.119942
-0.114952
-0.134913
-0.154874
-0.144894
-0.159865
-0.149884
-0.144894
-0.134913
-0.124933
-0.090000
-0.050078
-0.025126
-0.000175
0.009806
0.034757
0.029767
0.024777
0.029767
0.029767
0.019786
0.024777
0.019786
0.019786
0.024777
0.024777
0.024777
0.029767
0.029767
0.019786
0.029767
0.014796
0.019786
0.024777
0.014796
0.009806
0.014796
0.019786
0.019786
0.024777
0.024777
0.039748
0.034757
0.044738
0.034757
0.034757
0.019786
0.034757
0.019786
0.029767
0.024777
0.029767
0.034757
0.029767
0.034757
0.024777
0.024777
0.019786
0.014796
0.019786
0.009806
0.009806
0.009806
0.014796
0.004816
0.004816
-0.005165
0.004816
-0.010155
-0.000175
0.004816
-0.005165
-0.010155
-0.000175
0.014796
0.019786
0.029767
0.024777
0.014796
0.014796
0.004816
-0.000175
-0.000175
-0.005165
-0.005165
-0.000175
-0.000175
-0.000175
0.009806
-0.005165
0.004816
-0.005165
0.009806
0.009806
0.014796
0.009806
0.014796
0.019786
0.044738
0.049728
0.044738
0.019786
0.004816
-0.005165
0.004816
-0.000175
-0.005165
-0.005165
-0.000175
-0.010155
-0.005165
-0.005165
0.014796
0.069690
0.134564
-0.109962
-0.359477
-0.374448
-0.080020
-0.005165
0.009806
0.019786
0.034757
0.009806
0.014796
0.004816
-0.000175
0.024777
0.024777
0.029767
0.029767
0.039748
0.039748
0.024777
0.039748
0.034757
0.029767
0.029767
0.029767
0.009806
0.029767
0.024777
0.024777
0.029767
0.034757
0.029767
0.034757
0.009806
0.009806
0.004816
-0.000175
-0.010155
-0.025126
-0.040097
-0.045088
-0.055068
-0.055068
-0.050078
-0.065049
-0.055068
-0.055068
-0.040097
-0.055068
-0.045088
-0.040097
-0.035107
-0.025126
-0.005165
0.014796
0.034757
0.034757
0.189457
0.414021
0.678508
0.893091
0.638585
0.169496
-0.134913
-0.179826
-0.119942
-0.060059
-0.045088
-0.045088
-0.025126
-0.035107
-0.030117
-0.035107
-0.045088
-0.035107
-0.005165
-0.025126
-0.065049
-0.099981
-0.080020
-0.085010
-0.094991
-0.099981
-0.124933
-0.129923
-0.144894
-0.164855
-0.159865
-0.174836
-0.184816
-0.184816
-0.174836
-0.139904
-0.134913
-0.094991
-0.060059
-0.035107
-0.015146
-0.005165
-0.000175
0.004816
0.024777
0.024777
0.029767
0.019786
0.024777
0.014796
0.009806
-0.005165
-0.000175
0.004816
0.004816
-0.005165
-0.000175
0.004816
-0.010155
-0.015146
-0.010155
-0.010155
-0.015146
-0.015146
-0.010155
-0.000175
0.004816
0.004816
0.004816
0.024777
0.014796
0.024777
0.029767
0.034757
0.039748
0.039748
0.029767
0.014796
0.009806
0.004816
0.009806
0.009806
0.009806
0.009806
0.014796
0.009806
-0.005165
-0.005165
0.009806
0.009806
0.004816
0.009806
0.014796
0.014796
0.014796
0.004816
-0.005165
-0.005165
-0.015146
-0.020136
-0.025126
-0.020136
-0.020136
-0.020136
-0.025126
-0.015146
-0.020136
-0.015146
-0.005165
-0.000175
0.014796
0.009806
0.014796
0.029767
0.029767
0.024777
0.019786
0.014796
0.009806
0.009806
0.014796
0.019786
0.029767
0.049728
0.069690
0.074680
0.089651
0.059709
0.034757
0.029767
0.024777
0.024777
0.009806
0.004816
-0.005165
-0.000175
0.004816
-0.000175
0.034757
0.104622
0.059709
-0.229729
-0.309574
-0.189807
-0.025126
0.004816
0.014796
0.019786
0.034757
0.039748
0.044738
0.054719
0.069690
0.064699
0.064699
0.059709
0.054719
0.049728
0.044738
0.034757
0.039748
0.044738
0.039748
0.029767
0.064699
0.059709
0.059709
0.059709
0.054719
0.054719
0.059709
0.064699
0.054719
0.054719
0.049728
0.049728
0.049728
0.054719
0.039748
0.029767
0.024777
0.034757
0.029767
0.039748
0.024777
0.029767
0.014796
0.029767
0.034757
0.034757
0.039748
0.044738
0.054719
0.059709
0.074680
0.069690
0.064699
0.069690
0.064699
0.064699
0.059709
0.059709
0.049728
0.049728
0.049728
0.049728
0.044738
0.054719
0.039748
0.039748
0.039748
0.029767
0.019786
0.024777
0.034757
0.039748
0.054719
0.069690
0.084661
0.099631
0.119593
0.084661
0.044738
0.009806
-0.000175
-0.000175
-0.010155
-0.030117
-0.005165
-0.010155
-0.005165
-0.010155
-0.000175
0.014796
0.089651
0.139554
-0.154874
-0.409380
-0.384429
-0.104971
-0.040097
-0.040097
-0.035107
-0.020136
-0.020136
-0.020136
-0.000175
-0.020136
-0.025126
-0.020136
-0.020136
-0.020136
-0.025126
-0.015146
-0.010155
-0.000175
0.014796
0.014796
0.014796
0.019786
0.009806
-0.020136
-0.025126
-0.040097
-0.040097
-0.055068
-0.065049
-0.060059
-0.060059
-0.050078
-0.045088
-0.035107
-0.025126
-0.020136
-0.020136
-0.015146
-0.000175
-0.000175
-0.010155
-0.010155
-0.010155
-0.005165
-0.015146
-0.010155
-0.010155
-0.000175
0.014796
0.014796
0.004816
-0.000175
0.004816
0.004816
-0.000175
-0.000175
-0.000175
0.009806
0.009806
0.019786
0.019786
0.034757
0.004816
-0.005165
-0.010155
-0.020136
-0.020136
-0.010155
-0.015146
-0.005165
-0.005165
0.004816
0.019786
0.034757
0.054719
0.054719
0.044738
0.019786
-0.000175
-0.020136
-0.025126
-0.035107
-0.005165
-0.010155
-0.025126
-0.025126
-0.035107
-0.035107
-0.030117
0.004816
0.099631
0.054719
-0.259671
-0.364468
-0.209768
-0.040097
-0.015146
-0.020136
-0.020136
-0.015146
-0.025126
-0.030117
-0.020136
-0.015146
-0.005165
-0.000175
-0.005165
0.014796
0.019786
0.029767
0.024777
0.019786
0.009806
-0.000175
-0.015146
-0.025126
-0.015146
-0.010155
0.004816
0.014796
0.024777
0.024777
0.019786
0.019786
0.014796
0.009806
0.009806
-0.000175
-0.005165
-0.015146
-0.015146
-0.025126
-0.035107
-0.030117
-0.015146
-0.000175
0.004816
0.014796
0.009806
0.004816
0.009806
-0.000175
0.009806
0.024777
0.029767
0.029767
0.034757
0.034757
0.039748
0.039748
0.019786
0.004816
-0.005165
-0.005165
-0.015146
-0.030117
-0.005165
0.009806
0.029767
0.034757
0.039748
0.034757
-0.000175
0.019786
0.014796
-0.005165
-0.015146
-0.020136
-0.015146
-0.005165
-0.000175
0.004816
-0.020136
-0.045088
-0.050078
-0.040097
-0.030117
-0.030117
-0.035107
-0.030117
-0.035107
-0.035107
-0.025126
-0.020136
0.049728
0.189457
-0.030117
-0.469264
-0.504196
-0.204778
-0.065049
-0.025126
-0.020136
-0.010155
-0.000175
-0.010155
-0.025126
-0.020136
-0.015146
-0.020136
-0.010155
-0.005165
-0.005165
-0.005165
-0.015146
-0.020136
-0.020136
-0.025126
-0.030117
-0.050078
-0.055068
-0.055068
-0.055068
-0.070039
-0.070039
-0.065049
-0.050078
-0.050078
-0.055068
-0.035107
-0.025126
-0.025126
-0.015146
-0.005165
-0.010155
-0.020136
-0.025126
-0.035107
-0.045088
-0.040097
-0.025126
-0.025126
-0.005165
0.004816
0.014796
0.034757
0.044738
0.039748
0.034757
0.044738
0.024777
0.024777
0.019786
0.014796
0.009806
0.009806
0.014796
0.014796
0.024777
0.019786
0.034757
0.029767
0.024777
0.019786
0.019786
0.034757
0.034757
0.034757
0.029767
0.034757
0.024777
0.014796
0.029767
0.024777
0.039748
0.049728
0.034757
0.004816
-0.010155
-0.020136
-0.010155
0.004816
0.004816
-0.000175
-0.000175
0.004816
0.014796
0.024777
0.014796
0.094641
0.194447
-0.035107
-0.479245
-0.414371
-0.114952
-0.035107
-0.000175
0.009806
0.004816
0.014796
0.034757
0.039748
0.024777
0.044738
0.044738
0.044738
0.029767
0.029767
0.014796
0.009806
0.004816
-0.000175
-0.000175
0.004816
0.004816
0.009806
0.019786
0.009806
0.019786
0.004816
0.014796
0.014796
0.014796
-0.000175
0.004816
0.009806
-0.000175
-0.010155
0.004816
-0.000175
-0.000175
-0.000175
-0.015146
-0.010155
-0.020136
0.009806
0.014796
0.024777
0.019786
0.014796
0.029767
0.034757
0.039748
0.044738
0.049728
0.034757
0.029767
0.014796
-0.000175
0.009806
0.014796
0.019786
0.019786
0.029767
0.024777
0.014796
0.034757
0.029767
0.019786
0.014796
-0.000175
-0.010155
-0.010155
0.004816
0.014796
0.014796
0.019786
0.029767
0.049728
0.064699
0.074680
0.079670
0.069690
0.034757
0.019786
0.019786
0.009806
-0.010155
-0.015146
-0.005165
-0.015146
-0.005165
-0.000175
0.004816
0.059709
0.184467
0.029767
-0.424351
-0.469264
-0.184816
-0.050078
-0.025126
-0.010155
-0.000175
0.009806
0.029767
0.024777
0.044738
0.034757
0.024777
0.029767
0.019786
0.019786
0.024777
0.009806
0.034757
0.024777
0.029767
0.029767
0.019786
0.029767
0.014796
0.019786
0.004816
-0.005165
-0.005165
0.004816
-0.000175
0.004816
-0.005165
0.009806
0.004816
0.014796
0.034757
0.039748
0.029767
0.029767
0.014796
0.009806
0.009806
0.009806
0.014796
0.029767
0.024777
0.034757
0.039748
0.029767
0.029767
0.039748
0.039748
0.029767
0.029767
0.044738
0.024777
0.014796
0.004816
0.009806
0.009806
0.009806
0.029767
0.034757
0.024777
0.024777
0.009806
0.014796
0.009806
0.004816
0.009806
0.019786
0.019786
0.014796
0.014796
0.024777
0.029767
0.039748
0.049728
0.049728
0.049728
0.019786
-0.010155
-0.030117
-0.020136
-0.005165
-0.015146
-0.005165
-0.010155
-0.010155
-0.010155
-0.010155
-0.010155
0.084661
0.194447
-0.070039
-0.479245
-0.469264
-0.159865
-0.045088
-0.020136
-0.005165
-0.010155
-0.005165
-0.010155
-0.020136
-0.005165
-0.005165
-0.000175
0.004816
0.004816
0.009806
0.009806
0.014796
0.014796
0.014796
0.014796
-0.005165
0.004816
-0.000175
-0.015146
-0.015146
-0.015146
-0.010155
-0.010155
-0.015146
-0.015146
-0.005165
-0.010155
-0.005165
-0.010155
-0.010155
-0.005165
0.004816
0.009806
0.009806
0.004816
0.009806
0.014796
0.014796
0.009806
0.009806
0.014796
0.014796
0.019786
0.024777
0.029767
0.029767
0.024777
0.024777
0.024777
0.009806
0.009806
0.004816
-0.000175
-0.005165
0.004816
-0.000175
-0.010155
0.004816
0.009806
0.004816
0.014796
0.004816
0.014796
0.004816
0.004816
0.009806
0.004816
0.014796
0.014796
0.034757
0.054719
0.059709
0.069690
0.044738
0.014796
-0.015146
-0.025126
-0.020136
-0.015146
-0.010155
-0.010155
-0.005165
-0.010155
-0.005165
-0.000175
0.004816
0.079670
0.139554
-0.174836
-0.459283
-0.409380
-0.094991
-0.020136
-0.000175
-0.000175
0.004816
0.009806
-0.000175
0.004816
-0.000175
0.004816
0.009806
0.009806
0.029767
0.029767
0.034757
0.029767
0.024777
0.009806
0.029767
0.019786
0.009806
0.009806
-0.000175
-0.000175
-0.010155
-0.010155
-0.005165
-0.020136
-0.010155
-0.010155
-0.010155
-0.005165
0.004816
0.019786
0.009806
0.014796
0.004816
0.009806
0.004816
-0.015146
-0.000175
0.004816
0.009806
0.004816
0.014796
0.019786
0.019786
0.024777
0.029767
0.034757
0.034757
0.039748
0.034757
0.034757
0.019786
0.009806
0.004816
-0.015146
-0.005165
0.004816
-0.010155
-0.010155
-0.000175
0.004816
-0.000175
0.014796
0.014796
0.014796
0.009806
0.004816
-0.010155
-0.000175
-0.005165
-0.000175
0.014796
0.024777
0.044738
0.054719
0.039748
0.004816
-0.025126
-0.030117
-0.015146
-0.005165
-0.005165
0.009806
-0.015146
-0.025126
-0.000175
-0.015146
0.004816
0.094641
0.149535
-0.184816
-0.489225
-0.399400
-0.085010
-0.020136
0.004816
0.009806
0.009806
0.014796
0.019786
0.009806
0.014796
0.024777
0.014796
0.009806
0.019786
0.014796
0.029767
0.019786
0.019786
0.014796
0.009806
0.004816
0.004816
0.014796
0.004816
0.009806
-0.000175
0.004816
-0.005165
-0.000175
-0.010155
-0.010155
-0.015146
-0.015146
-0.020136
-0.015146
-0.005165
-0.000175
0.019786
0.009806
0.019786
0.009806
0.004816
0.014796
0.009806
0.014796
0.024777
0.024777
0.029767
0.024777
0.029767
0.034757
0.029767
0.019786
0.024777
0.019786
0.009806
0.014796
0.004816
0.004816
-0.000175
0.014796
0.004816
0.029767
0.039748
0.039748
0.044738
0.039748
0.024777
0.039748
0.034757
0.034757
0.034757
0.044738
0.044738
0.049728
0.059709
0.079670
0.089651
0.089651
0.084661
0.069690
0.024777
0.004816
-0.015146
0.009806
0.009806
0.014796
0.009806
0.004816
0.004816
0.014796
0.014796
0.054719
0.154525
0.124583
-0.264661
-0.469264
-0.289613
-0.055068
-0.000175
0.009806
0.019786
0.019786
0.014796
0.034757
0.039748
0.034757
0.029767
0.024777
0.009806
0.034757
0.034757
0.029767
0.024777
0.014796
0.004816
-0.000175
-0.015146
-0.005165
-0.005165
-0.015146
-0.010155
-0.000175
-0.000175
-0.010155
-0.015146
-0.005165
-0.010155
-0.010155
-0.025126
-0.015146
-0.010155
-0.005165
-0.015146
-0.025126
-0.030117
-0.025126
-0.030117
-0.035107
-0.025126
-0.020136
-0.025126
-0.030117
-0.025126
-0.030117
-0.030117
-0.010155
-0.000175
0.004816
0.009806
0.009806
-0.000175
0.009806
0.009806
-0.005165
-0.010155
0.004816
-0.010155
-0.005165
-0.005165
-0.005165
0.004816
-0.000175
-0.000175
0.004816
0.014796
0.009806
0.019786
0.004816
0.009806
-0.000175
0.004816
0.009806
0.009806
0.014796
0.039748
0.054719
0.044738
0.039748
0.014796
-0.005165
-0.010155
-0.015146
-0.010155
-0.005165
-0.000175
-0.000175
0.004816
0.004816
0.004816
0.039748
0.144544
0.054719
-0.359477
-0.464274
-0.219749
-0.045088
-0.015146
0.009806
0.009806
0.014796
0.014796
0.004816
0.009806
-0.005165
0.024777
0.039748
0.029767
0.019786
0.039748
0.029767
0.039748
0.029767
0.039748
0.029767
0.014796
0.019786
0.004816
-0.015146
-0.005165
-0.015146
-0.010155
-0.010155
-0.020136
-0.010155
-0.000175
-0.005165
-0.005165
-0.005165
-0.000175
-0.000175
0.004816
-0.000175
-0.000175
-0.000175
-0.000175
-0.000175
0.004816
0.004816
0.009806
0.014796
0.009806
-0.000175
-0.005165
-0.000175
-0.010155
-0.000175
0.004816
-0.010155
-0.020136
-0.005165
-0.005165
-0.000175
-0.015146
-0.020136
-0.020136
-0.015146
-0.015146
0.004816
-0.005165
-0.005165
-0.005165
-0.010155
-0.000175
-0.000175
-0.000175
0.004816
0.004816
-0.000175
0.004816
0.014796
0.014796
0.004816
0.019786
0.034757
0.049728
0.064699
0.054719
0.024777
0.009806
0.009806
0.014796
0.029767
0.024777
0.029767
0.034757
0.019786
0.024777
-0.005165
0.019786
0.089651
0.159515
-0.109962
-0.474254
-0.419361
-0.094991
0.004816
0.009806
0.019786
0.024777
0.024777
0.029767
0.024777
0.039748
0.034757
0.039748
0.044738
0.034757
0.039748
0.029767
0.024777
0.029767
0.019786
0.024777
0.014796
0.019786
0.019786
0.019786
0.019786
0.014796
0.009806
0.004816
-0.010155
-0.015146
-0.015146
-0.010155
-0.010155
-0.010155
-0.015146
-0.005165
-0.005165
-0.005165
-0.005165
-0.005165
-0.005165
-0.020136
-0.015146
-0.005165
-0.000175
-0.010155
0.004816
0.009806
0.014796
0.019786
0.004816
0.004816
0.004816
0.009806
0.009806
0.009806
0.009806
0.004816
0.009806
0.014796
0.009806
-0.000175
-0.000175
-0.010155
-0.020136
-0.025126
-0.025126
-0.025126
-0.020136
-0.015146
-0.015146
-0.020136
-0.005165
-0.005165
-0.000175
-0.000175
0.009806
0.029767
0.034757
0.054719
0.044738
0.014796
-0.000175
-0.015146
-0.005165
-0.005165
0.009806
0.009806
0.014796
0.014796
0.014796
0.004816
-0.000175
0.039748
0.154525
-0.015146
-0.384429
-0.439322
-0.219749
-0.045088
-0.020136
-0.010155
-0.015146
0.004816
-0.000175
-0.010155
-0.005165
-0.000175
0.009806
0.009806
0.009806
0.004816
0.009806
0.009806
0.004816
0.009806
-0.000175
-0.005165
0.004816
-0.000175
-0.000175
0.004816
0.014796
0.009806
0.009806
0.009806
0.004816
0.004816
0.004816
-0.010155
-0.005165
-0.000175
0.009806
0.009806
0.014796
0.009806
0.019786
0.019786
0.019786
0.019786
0.024777
0.034757
0.024777
0.029767
0.034757
0.034757
0.039748
0.044738
0.034757
0.024777
0.019786
0.019786
0.029767
0.034757
0.034757
0.044738
0.039748
0.029767
0.039748
0.044738
0.029767
0.034757
0.034757
0.029767
0.014796
0.009806
0.014796
0.014796
0.009806
0.019786
0.024777
0.014796
0.019786
0.019786
0.029767
0.029767
0.034757
0.049728
0.044738
0.034757
0.004816
-0.020136
-0.015146
-0.005165
0.004816
0.019786
0.019786
0.014796
0.014796
0.009806
0.019786
0.034757
0.124583
0.094641
-0.294603
-0.484235
-0.324545
-0.070039
-0.020136
0.009806
-0.010155
-0.015146
0.004816
0.019786
0.019786
0.019786
0.024777
0.024777
0.034757
0.029767
0.029767
0.019786
0.034757
0.024777
0.024777
0.019786
0.014796
-0.000175
0.004816
-0.000175
-0.005165
-0.010155
-0.010155
-0.000175
0.004816
0.009806
0.009806
0.014796
0.009806
0.009806
0.009806
0.009806
0.004816
0.004816
0.009806
0.004816
0.024777
0.024777
0.034757
0.039748
0.039748
0.034757
0.034757
0.034757
0.034757
0.024777
0.024777
0.019786
0.014796
0.029767
0.034757
0.039748
0.039748
0.039748
0.039748
0.034757
0.029767
0.039748
0.024777
0.019786
0.019786
0.019786
0.029767
0.019786
0.019786
0.019786
0.014796
0.034757
0.014796
0.014796
0.009806
0.009806
-0.000175
0.004816
0.009806
0.024777
0.039748
0.069690
0.054719
0.009806
-0.005165
-0.010155
-0.035107
-0.025126
-0.020136
-0.015146
-0.005165
0.014796
0.019786
0.019786
0.019786
0.074680
0.184467
0.019786
-0.394409
-0.409380
-0.174836
-0.040097
-0.030117
-0.005165
-0.005165
0.009806
0.004816
-0.005165
0.009806
-0.000175
0.009806
0.024777
0.019786
0.024777
0.019786
0.014796
0.029767
0.014796
0.014796
0.024777
0.009806
0.009806
0.014796
0.004816
0.004816
-0.000175
0.009806
-0.005165
-0.010155
-0.005165
-0.015146
-0.010155
-0.010155
-0.005165
-0.000175
-0.005165
-0.005165
0.004816
-0.005165
-0.000175
-0.000175
-0.010155
-0.015146
-0.020136
-0.010155
0.004816
0.009806
-0.000175
0.029767
0.024777
0.029767
0.044738
0.024777
0.019786
0.004816
-0.015146
-0.010155
-0.000175
-0.000175
-0.000175
0.009806
-0.000175
0.004816
0.009806
0.019786
0.024777
0.019786
0.024777
0.014796
-0.000175
-0.000175
-0.000175
-0.000175
0.004816
0.014796
0.024777
-0.000175
0.014796
0.029767
0.044738
0.054719
0.064699
0.049728
0.019786
-0.000175
-0.005165
-0.000175
-0.000175
-0.000175
0.009806
-0.010155
-0.005165
-0.010155
-0.000175
0.009806
0.089651
0.109612
-0.224739
-0.439322
-0.314564
-0.075029
-0.030117
-0.025126
-0.025126
-0.015146
-0.020136
-0.010155
-0.005165
-0.000175
0.004816
0.004816
-0.000175
-0.005165
0.009806
0.009806
-0.000175
-0.000175
-0.015146
-0.025126
-0.035107
-0.035107
-0.035107
-0.040097
-0.030117
-0.030117
-0.025126
-0.030117
-0.040097
-0.035107
-0.035107
-0.035107
-0.030117
-0.020136
-0.015146
-0.010155
-0.010155
-0.010155
-0.010155
-0.015146
-0.015146
-0.010155
-0.000175
0.004816
0.004816
0.009806
0.009806
0.014796
0.019786
0.019786
0.004816
-0.010155
-0.005165
-0.005165
-0.005165
-0.000175
-0.005165
-0.005165
-0.010155
-0.005165
-0.010155
-0.005165
-0.005165
-0.005165
-0.000175
0.004816
0.014796
0.014796
0.014796
0.014796
0.014796
0.009806
-0.000175
0.009806
0.009806
0.004816
0.009806
0.014796
0.014796
0.029767
0.049728
0.074680
0.064699
0.029767
-0.005165
-0.015146
-0.010155
-0.010155
-0.000175
0.004816
-0.005165
-0.005165
-0.000175
0.009806
0.004816
0.064699
0.179476
-0.000175
-0.444313
-0.469264
-0.184816
-0.035107
-0.000175
0.004816
0.019786
0.014796
0.029767
0.019786
0.029767
0.029767
0.019786
0.029767
0.034757
0.039748
0.034757
0.034757
0.029767
0.019786
0.014796
0.009806
-0.000175
0.004816
-0.010155
-0.015146
-0.020136
-0.025126
-0.010155
-0.020136
-0.015146
-0.020136
-0.030117
-0.025126
-0.005165
-0.005165
-0.000175
-0.010155
-0.010155
-0.000175
0.004816
-0.005165
-0.005165
-0.015146
-0.015146
-0.025126
-0.025126
-0.020136
-0.010155
-0.005165
0.009806
0.024777
0.029767
0.019786
0.019786
0.009806
0.009806
-0.005165
-0.020136
-0.015146
-0.005165
-0.005165
-0.000175
0.009806
0.004816
0.009806
0.004816
0.019786
0.019786
0.014796
0.009806
0.009806
0.019786
0.019786
0.014796
0.014796
0.004816
0.014796
0.014796
0.044738
0.064699
0.069690
0.059709
0.034757
0.009806
-0.005165
0.009806
-0.005165
0.004816
0.009806
0.004816
0.004816
-0.005165
-0.015146
-0.005165
0.049728
0.139554
0.019786
-0.304584
-0.359477
-0.149884
-0.030117
0.004816
-0.005165
-0.005165
-0.000175
0.004816
0.009806
0.009806
0.009806
0.019786
0.019786
0.034757
0.019786
0.024777
0.024777
0.024777
0.029767
0.029767
0.019786
0.004816
0.014796
0.004816
0.014796
-0.000175
-0.000175
-0.000175
-0.005165
0.009806
-0.000175
-0.005165
-0.010155
-0.000175
-0.005165
-0.000175
-0.005165
0.009806
0.014796
0.019786
0.029767
0.024777
0.024777
0.014796
0.034757
0.024777
0.029767
0.029767
0.029767
0.029767
0.029767
0.029767
0.009806
-0.000175
0.009806
0.014796
0.014796
0.024777
0.029767
0.034757
0.029767
0.029767
0.034757
0.019786
0.024777
-0.005165
-0.000175
-0.005165
-0.015146
-0.020136
-0.015146
-0.010155
-0.005165
-0.010155
-0.005165
-0.005165
-0.010155
-0.005165
-0.000175
-0.005165
0.014796
0.024777
0.014796
-0.015146
-0.030117
-0.020136
-0.015146
-0.015146
-0.005165
-0.010155
-0.010155
-0.005165
-0.005165
-0.010155
0.009806
0.084661
0.149535
-0.174836
-0.479245
-0.399400
-0.085010
-0.020136
0.004816
0.004816
0.029767
0.024777
0.014796
0.004816
0.009806
0.014796
0.009806
0.009806
0.014796
0.014796
0.009806
-0.000175
0.004816
0.009806
0.009806
0.009806
0.004816
0.004816
0.009806
0.004816
0.004816
-0.000175
-0.005165
-0.000175
-0.015146
-0.025126
-0.030117
-0.025126
-0.020136
-0.020136
-0.010155
-0.005165
-0.000175
-0.000175
-0.020136
-0.000175
-0.000175
0.029767
0.039748
0.034757
0.024777
0.014796
0.009806
0.009806
0.019786
0.019786
0.014796
0.009806
-0.010155
0.004816
0.009806
-0.000175
-0.005165
-0.015146
-0.005165
-0.015146
-0.010155
-0.010155
-0.015146
-0.010155
0.009806
0.009806
0.019786
0.024777
0.024777
0.014796
0.014796
0.014796
0.014796
0.009806
0.009806
0.004816
-0.010155
0.004816
0.019786
0.044738
0.064699
0.034757
-0.010155
-0.010155
0.009806
0.029767
0.039748
0.024777
0.014796
-0.010155
0.004816
-0.000175
-0.000175
0.009806
0.054719
0.189457
-0.005165
-0.424351
-0.474254
-0.174836
-0.055068
-0.020136
-0.010155
-0.010155
0.004816
-0.000175
-0.000175
0.004816
0.019786
0.014796
0.034757
0.024777
0.019786
0.009806
0.014796
0.034757
0.039748
0.034757
0.034757
0.029767
0.034757
0.034757
0.014796
0.029767
0.014796
0.014796
0.019786
0.004816
-0.005165
0.014796
0.029767
0.024777
0.014796
0.029767
0.024777
0.034757
0.049728
0.054719
0.059709
0.059709
0.054719
0.054719
0.049728
0.044738
0.034757
0.034757
0.034757
0.044738
0.049728
0.049728
0.049728
0.049728
0.054719
0.049728
0.049728
0.044738
0.049728
0.034757
0.034757
0.029767
0.024777
0.024777
0.019786
0.019786
0.009806
0.009806
0.009806
0.019786
0.019786
0.019786
0.019786
0.024777
0.024777
0.014796
0.009806
0.009806
-0.000175
0.009806
0.024777
0.049728
0.054719
0.039748
0.009806
-0.010155
-0.010155
-0.020136
-0.015146
-0.025126
-0.025126
-0.010155
-0.005165
-0.000175
0.004816
0.009806
0.064699
0.159515
-0.025126
-0.439322
-0.414371
-0.129923
-0.015146
-0.005165
-0.000175
-0.000175
0.004816
-0.000175
-0.015146
-0.005165
-0.005165
-0.010155
0.009806
-0.000175
0.019786
0.019786
0.029767
0.024777
0.034757
0.014796
0.014796
0.004816
0.009806
0.004816
-0.000175
-0.005165
-0.000175
-0.000175
-0.005165
0.009806
0.014796
0.004816
-0.000175
-0.010155
0.004816
0.009806
0.014796
0.019786
0.019786
0.009806
-0.000175
-0.000175
-0.000175
-0.005165
0.004816
0.004816
0.024777
0.039748
0.044738
0.024777
0.024777
0.004816
0.004816
-0.000175
-0.005165
0.004816
0.009806
0.009806
0.014796
0.009806
0.009806
0.009806
0.009806
0.014796
0.024777
0.024777
0.014796
0.014796
-0.000175
0.014796
0.014796
0.014796
0.019786
0.009806
0.004816
-0.005165
-0.005165
0.004816
0.009806
0.019786
0.054719
0.049728
0.039748
0.009806
0.009806
-0.005165
-0.010155
-0.000175
-0.010155
-0.010155
-0.015146
-0.020136
-0.025126
-0.010155
0.014796
0.094641
0.149535
-0.174836
-0.429342
-0.334526
-0.090000
-0.020136
-0.010155
-0.015146
-0.015146
-0.015146
-0.000175
0.004816
0.009806
-0.005165
0.004816
0.014796
0.009806
0.004816
0.014796
0.009806
0.019786
0.019786
0.014796
0.014796
0.014796
0.014796
0.014796
0.004816
0.009806
-0.000175
-0.010155
-0.010155
-0.015146
-0.015146
-0.005165
-0.010155
-0.015146
-0.015146
-0.015146
-0.015146
-0.020136
-0.015146
-0.015146
-0.010155
-0.000175
-0.005165
-0.010155
0.004816
0.009806
-0.005165
0.009806
0.019786
0.019786
0.019786
0.019786
0.019786
0.009806
0.009806
0.009806
0.014796
0.014796
0.014796
0.014796
0.014796
0.019786
0.019786
0.014796
0.014796
0.019786
0.019786
0.019786
0.009806
0.009806
0.019786
0.014796
0.014796
0.014796
0.019786
0.014796
0.009806
0.024777
0.034757
0.049728
0.064699
0.044738
0.024777
0.004816
0.004816
-0.015146
0.009806
0.014796
0.009806
0.004816
0.009806
0.014796
0.024777
0.044738
0.119593
0.129573
-0.199787
-0.394409
-0.314564
-0.060059
-0.020136
-0.010155
-0.005165
-0.000175
0.004816
-0.000175
-0.000175
-0.005165
0.004816
0.009806
0.004816
0.014796
0.009806
0.004816
-0.000175
-0.000175
0.019786
0.019786
0.014796
-0.000175
-0.005165
-0.015146
-0.015146
-0.015146
-0.010155
-0.005165
-0.005165
-0.010155
-0.010155
-0.010155
-0.015146
-0.005165
-0.020136
-0.000175
-0.000175
-0.000175
0.004816
0.014796
0.004816
0.014796
0.009806
0.004816
0.009806
0.019786
0.019786
0.024777
0.019786
0.024777
0.014796
0.019786
0.004816
0.014796
0.019786
0.024777
0.014796
0.024777
0.024777
0.029767
0.014796
0.024777
0.024777
0.024777
0.014796
0.014796
0.029767
0.024777
0.019786
0.009806
0.014796
0.009806
-0.000175
-0.000175
-0.000175
-0.010155
-0.010155
0.014796
0.029767
0.049728
0.039748
0.019786
-0.005165
-0.010155
-0.015146
-0.005165
-0.010155
-0.005165
-0.005165
-0.000175
-0.010155
-0.020136
-0.020136
0.039748
0.179476
-0.005165
-0.449303
-0.559090
-0.254681
-0.060059
-0.020136
-0.010155
0.009806
0.009806
0.024777
0.029767
0.029767
0.024777
0.024777
0.024777
0.014796
0.014796
0.029767
0.024777
0.024777
0.024777
0.019786
-0.005165
0.014796
0.014796
0.009806
0.019786
-0.010155
-0.000175
-0.010155
-0.000175
-0.005165
-0.005165
-0.010155
-0.025126
-0.005165
-0.000175
-0.000175
0.009806
0.014796
0.014796
0.029767
0.019786
0.024777
0.019786
-0.000175
0.009806
0.004816
0.014796
0.019786
0.014796
-0.000175
0.014796
0.009806
0.014796
0.024777
0.024777
0.039748
0.034757
0.034757
0.019786
0.019786
0.004816
0.014796
0.014796
0.009806
0.009806
0.009806
0.004816
-0.000175
-0.000175
-0.005165
-0.015146
-0.010155
-0.000175
-0.000175
-0.015146
-0.005165
-0.000175
0.009806
0.029767
0.049728
0.064699
0.044738
0.009806
-0.010155
-0.020136
-0.015146
-0.010155
-0.005165
-0.000175
-0.010155
-0.035107
-0.015146
-0.005165
-0.005165
0.049728
0.179476
-0.015146
-0.474254
-0.514177
-0.199787
-0.040097
-0.020136
-0.000175
-0.005165
0.009806
-0.000175
-0.005165
-0.000175
0.004816
-0.005165
-0.000175
-0.010155
-0.000175
0.009806
0.014796
0.024777
0.019786
0.014796
0.009806
0.009806
0.014796
0.004816
0.009806
-0.000175
-0.000175
-0.000175
0.014796
0.014796
0.019786
0.019786
0.014796
0.014796
0.004816
0.019786
0.019786
0.019786
0.024777
0.019786
0.014796
0.024777
0.024777
0.024777
0.019786
0.009806
0.014796
0.009806
0.014796
0.019786
0.014796
0.004816
0.009806
-0.000175
0.009806
0.019786
0.009806
0.014796
0.014796
0.019786
0.014796
0.014796
0.009806
-0.000175
0.004816
-0.000175
0.004816
0.019786
0.029767
0.024777
0.024777
0.019786
0.014796
0.014796
-0.000175
0.004816
0.004816
-0.000175
0.009806
0.024777
0.034757
0.049728
0.024777
-0.020136
-0.030117
-0.035107
-0.040097
-0.030117
0.009806
0.009806
0.009806
-0.005165
-0.015146
-0.010155
-0.025126
0.029767
0.139554
0.009806
-0.414371
-0.424351
-0.154874
-0.020136
-0.010155
-0.005165
-0.000175
-0.000175
0.009806
0.009806
-0.000175
0.004816
0.014796
0.024777
0.014796
0.019786
0.024777
0.024777
0.024777
0.019786
-0.000175
0.009806
-0.000175
-0.000175
-0.005165
-0.015146
-0.010155
-0.000175
0.009806
0.024777
0.024777
0.029767
0.024777
0.024777
0.014796
0.019786
0.009806
0.014796
0.009806
-0.000175
0.019786
0.014796
0.014796
0.014796
0.019786
0.009806
0.019786
0.029767
0.024777
0.019786
0.034757
0.024777
0.029767
0.034757
0.024777
0.029767
0.039748
0.029767
0.024777
0.029767
0.034757
0.019786
0.019786
0.019786
0.004816
0.014796
0.009806
-0.000175
-0.005165
-0.000175
-0.005165
0.004816
0.009806
0.004816
-0.000175
-0.000175
-0.010155
-0.010155
-0.010155
0.009806
0.029767
0.029767
0.054719
0.039748
0.009806
-0.000175
0.009806
-0.000175
-0.020136
-0.020136
-0.025126
-0.020136
-0.030117
-0.015146
-0.000175
0.029767
0.114602
0.094641
-0.234719
-0.389419
-0.229729
-0.035107
-0.000175
-0.000175
-0.000175
0.009806
-0.005165
0.019786
0.024777
0.019786
0.004816
0.009806
0.009806
-0.000175
-0.000175
0.004816
0.004816
0.019786
0.014796
0.014796
0.014796
0.009806
-0.000175
-0.000175
-0.015146
-0.005165
-0.010155
-0.005165
-0.010155
0.004816
-0.010155
-0.000175
-0.000175
0.009806
0.024777
0.024777
0.024777
0.029767
0.029767
0.039748
0.044738
0.044738
0.044738
0.039748
0.039748
0.039748
0.044738
0.044738
0.039748
0.039748
0.044738
0.044738
0.024777
0.029767
0.024777
0.019786
0.024777
0.004816
0.004816
-0.005165
0.009806
0.004816
0.009806
0.009806
0.014796
0.019786
0.009806
0.009806
0.009806
0.019786
0.009806
0.019786
0.019786
0.009806
0.009806
0.004816
0.009806
0.029767
0.049728
0.069690
0.059709
0.039748
-0.000175
-0.000175
-0.010155
-0.010155
-0.005165
0.009806
0.009806
0.004816
0.009806
0.009806
0.009806
0.074680
0.154525
-0.015146
-0.354487
-0.384429
-0.129923
-0.025126
-0.000175
-0.000175
0.009806
-0.000175
0.009806
0.009806
0.014796
0.009806
0.019786
0.014796
0.014796
0.009806
0.004816
0.014796
0.019786
0.019786
0.024777
0.029767
0.014796
-0.000175
-0.000175
-0.000175
-0.020136
-0.025126
-0.015146
-0.015146
-0.030117
-0.020136
-0.030117
-0.010155
-0.020136
-0.005165
-0.005165
-0.000175
0.004816
0.009806
0.014796
0.004816
0.009806
0.009806
0.004816
0.009806
0.029767
0.019786
0.024777
0.019786
0.019786
0.004816
0.024777
0.024777
0.029767
0.024777
0.014796
0.019786
0.024777
0.019786
0.029767
0.029767
0.029767
0.039748
0.019786
0.019786
0.004816
0.009806
0.004816
0.024777
0.034757
0.024777
0.019786
0.009806
0.019786
0.014796
0.014796
0.009806
0.009806
0.009806
0.009806
0.034757
0.059709
0.074680
0.064699
0.009806
-0.015146
-0.020136
-0.010155
-0.005165
0.004816
0.004816
-0.015146
-0.010155
-0.015146
-0.005165
0.004816
0.064699
0.124583
-0.055068
-0.384429
-0.329535
-0.085010
-0.020136
-0.015146
-0.005165
-0.005165
-0.000175
-0.005165
-0.005165
-0.000175
-0.010155
-0.035107
-0.000175
-0.000175
-0.000175
-0.000175
-0.005165
0.004816
-0.005165
-0.010155
-0.015146
-0.040097
-0.020136
-0.020136
-0.005165
-0.020136
-0.010155
-0.000175
-0.015146
-0.025126
-0.010155
-0.005165
-0.010155
0.009806
0.004816
0.009806
-0.005165
0.004816
-0.005165
0.014796
-0.010155
0.004816
0.009806
-0.000175
0.004816
0.009806
0.024777
0.024777
0.019786
0.014796
0.014796
0.019786
0.009806
0.004816
-0.010155
-0.000175
0.004816
-0.010155
-0.005165
-0.005165
-0.010155
-0.010155
-0.005165
0.014796
-0.005165
-0.015146
-0.005165
-0.000175
-0.005165
-0.000175
0.004816
-0.000175
0.004816
-0.010155
-0.015146
-0.000175
0.004816
0.009806
0.014796
0.019786
0.014796
0.029767
0.049728
0.029767
-0.000175
-0.015146
-0.005165
-0.015146
0.004816
-0.005165
-0.015146
-0.015146
-0.020136
-0.020136
-0.005165
0.014796
0.054719
0.114602
-0.015146
-0.384429
-0.364468
-0.109962
-0.040097
-0.020136
-0.000175
0.004816
0.004816
0.009806
0.004816
0.004816
0.014796
0.009806
0.019786
0.009806
0.014796
0.024777
0.014796
-0.000175
0.009806
0.004816
-0.010155
-0.015146
-0.010155
-0.015146
-0.025126
-0.020136
-0.025126
-0.035107
-0.020136
-0.020136
-0.005165
-0.030117
-0.010155
-0.015146
-0.005165
0.019786
0.014796
0.004816
0.004816
0.004816
0.019786
0.029767
0.024777
0.024777
0.019786
0.019786
0.009806
0.014796
0.019786
0.009806
0.024777
0.024777
0.024777
0.014796
0.014796
0.009806
0.004816
0.004816
0.004816
0.004816
0.004816
0.014796
0.019786
0.009806
0.014796
0.009806
0.009806
0.009806
-0.000175
0.009806
0.004816
-0.005165
-0.000175
-0.000175
0.014796
-0.010155
0.004816
0.009806
0.004816
0.014796
0.034757
0.044738
0.029767
-0.000175
-0.030117
-0.020136
-0.015146
-0.015146
-0.000175
-0.005165
-0.005165
0.004816
-0.000175
-0.005165
0.004816
0.049728
0.104622
-0.065049
-0.364468
-0.334526
-0.080020
-0.015146
-0.005165
0.004816
0.009806
0.009806
0.019786
0.024777
0.019786
0.024777
0.024777
0.019786
0.024777
0.019786
0.004816
0.009806
0.019786
0.009806
0.004816
0.009806
0.004816
0.004816
0.004816
-0.010155
-0.010155
-0.010155
-0.010155
-0.010155
-0.005165
-0.005165
-0.000175
-0.000175
-0.005165
0.004816
-0.000175
-0.005165
-0.000175
-0.005165
-0.015146
-0.015146
-0.010155
-0.010155
-0.010155
0.009806
0.014796
0.009806
0.019786
0.019786
0.019786
0.019786
0.019786
0.014796
0.019786
0.019786
0.014796
0.019786
0.009806
-0.000175
0.004816
0.004816
0.004816
-0.005165
-0.000175
-0.000175
0.009806
-0.000175
0.004816
0.004816
0.004816
0.014796
0.004816
0.009806
0.019786
0.019786
0.014796
0.014796
0.034757
0.049728
0.074680
0.059709
0.054719
0.034757
0.019786
0.019786
0.014796
0.009806
0.034757
0.029767
0.024777
0.019786
0.009806
0.019786
0.034757
0.074680
0.114602
-0.124933
-0.319555
-0.264661
-0.025126
0.014796
0.014796
0.019786
0.024777
0.019786
0.019786
0.034757
0.044738
0.044738
0.044738
0.049728
0.049728
0.044738
0.049728
0.044738
0.054719
0.034757
0.019786
0.024777
0.019786
0.009806
0.009806
0.004816
-0.000175
-0.000175
-0.010155
0.004816
-0.005165
0.009806
0.014796
0.004816
0.009806
0.014796
0.019786
0.019786
0.029767
0.014796
0.029767
0.039748
0.034757
0.024777
0.039748
0.034757
0.039748
0.039748
0.034757
0.034757
0.039748
0.049728
0.049728
0.054719
0.034757
0.039748
0.024777
0.029767
0.029767
0.034757
0.024777
0.024777
0.009806
0.019786
0.024777
0.024777
0.019786
0.029767
0.024777
0.019786
0.024777
0.029767
0.024777
0.024777
0.019786
0.024777
0.024777
0.019786
0.029767
0.049728
0.049728
0.029767
-0.005165
-0.020136
-0.020136
-0.020136
-0.020136
-0.010155
-0.015146
-0.030117
-0.015146
-0.020136
-0.025126
-0.025126
0.054719
0.109612
-0.055068
-0.399400
-0.359477
-0.099981
-0.020136
-0.020136
-0.025126
-0.010155
-0.005165
-0.000175
-0.010155
0.004816
0.004816
-0.005165
0.009806
-0.010155
-0.000175
-0.000175
-0.010155
-0.020136
-0.010155
-0.015146
-0.020136
-0.015146
-0.020136
-0.015146
-0.025126
-0.025126
-0.025126
-0.025126
-0.020136
-0.010155
-0.020136
-0.030117
-0.020136
-0.020136
-0.015146
-0.010155
-0.005165
-0.015146
0.004816
0.004816
0.009806
0.004816
0.019786
0.014796
0.004816
0.004816
0.014796
0.009806
0.014796
0.014796
0.014796
0.024777
0.024777
0.024777
0.019786
0.019786
0.024777
0.029767
0.004816
0.024777
0.024777
0.024777
0.019786
0.024777
0.029767
0.024777
0.029767
0.014796
-0.005165
0.024777
0.019786
0.009806
0.004816
0.014796
0.004816
-0.000175
0.009806
0.009806
0.024777
0.049728
0.044738
0.049728
0.044738
0.009806
0.004816
-0.010155
-0.010155
-0.015146
-0.020136
-0.020136
-0.010155
-0.015146
-0.010155
-0.000175
0.009806
0.069690
0.029767
-0.294603
-0.389419
-0.199787
-0.040097
-0.015146
-0.015146
-0.015146
-0.020136
-0.030117
-0.030117
-0.030117
-0.020136
-0.010155
-0.010155
-0.000175
-0.005165
-0.005165
-0.010155
-0.010155
-0.010155
-0.035107
-0.025126
-0.030117
-0.040097
-0.045088
-0.040097
-0.055068
-0.045088
-0.045088
-0.040097
-0.045088
-0.035107
-0.035107
-0.040097
-0.035107
-0.035107
-0.025126
-0.025126
-0.015146
-0.010155
-0.015146
-0.015146
-0.020136
-0.015146
-0.015146
-0.025126
-0.030117
-0.035107
-0.030117
-0.030117
-0.035107
-0.040097
-0.015146
-0.020136
-0.010155
-0.010155
-0.010155
-0.015146
-0.015146
-0.020136
-0.010155
-0.000175
-0.005165
0.004816
-0.010155
-0.000175
0.009806
0.014796
0.019786
-0.010155
0.009806
0.019786
0.009806
0.019786
0.014796
-0.000175
0.009806
-0.000175
-0.020136
-0.010155
-0.000175
0.009806
0.019786
0.034757
0.029767
0.014796
-0.020136
-0.025126
-0.020136
-0.020136
-0.010155
-0.005165
-0.005165
-0.010155
-0.015146
-0.020136
-0.030117
-0.005165
0.039748
-0.010155
-0.309574
-0.344506
-0.174836
-0.080020
-0.060059
-0.030117
-0.035107
-0.035107
-0.010155
-0.010155
-0.010155
-0.000175
-0.000175
-0.000175
-0.005165
0.009806
0.004816
0.004816
0.024777
0.024777
0.024777
0.029767
0.009806
0.004816
0.009806
-0.000175
0.004816
-0.000175
-0.000175
-0.000175
-0.000175
0.004816
-0.000175
-0.005165
0.009806
0.009806
0.014796
-0.000175
0.014796
0.019786
0.024777
0.019786
0.024777
0.024777
0.024777
0.024777
0.034757
0.039748
0.029767
0.039748
0.044738
0.049728
0.034757
0.044738
0.034757
0.039748
0.044738
0.029767
0.034757
0.019786
0.024777
0.029767
0.029767
0.034757
0.024777
0.029767
0.029767
0.029767
0.024777
0.024777
0.024777
0.024777
0.019786
0.029767
0.024777
0.029767
0.024777
0.014796
0.014796
0.024777
0.034757
0.049728
0.054719
0.044738
0.004816
-0.005165
-0.015146
-0.015146
-0.010155
-0.010155
-0.005165
-0.005165
-0.010155
-0.015146
-0.030117
-0.010155
0.034757
0.099631
-0.045088
-0.354487
-0.339516
-0.104971
-0.025126
-0.010155
0.004816
-0.000175
-0.000175
0.014796
0.019786
0.004816
0.014796
0.009806
0.019786
0.019786
0.014796
0.004816
0.014796
0.014796
0.009806
0.009806
0.004816
-0.010155
-0.000175
-0.000175
-0.010155
-0.010155
-0.020136
-0.015146
-0.020136
-0.020136
-0.015146
-0.025126
-0.015146
-0.015146
-0.025126
-0.005165
-0.000175
0.014796
0.004816
0.009806
0.009806
0.014796
0.029767
0.034757
0.029767
0.029767
0.039748
0.034757
0.044738
0.034757
0.029767
0.009806
0.014796
0.019786
0.009806
0.004816
0.014796
0.019786
0.019786
0.019786
0.019786
0.014796
0.019786
0.024777
0.024777
0.039748
0.044738
0.044738
0.044738
0.054719
0.044738
0.044738
0.034757
0.039748
0.029767
0.029767
0.029767
0.054719
0.079670
0.079670
0.069690
0.044738
0.009806
0.009806
0.014796
0.019786
0.014796
0.014796
0.014796
0.004816
-0.000175
0.014796
0.004816
0.054719
0.109612
-0.020136
-0.309574
-0.299594
-0.085010
-0.015146
-0.025126
-0.005165
-0.000175
-0.000175
-0.000175
-0.005165
-0.005165
0.004816
0.004816
0.014796
0.009806
0.004816
-0.000175
0.004816
-0.000175
-0.005165
-0.005165
-0.015146
-0.015146
-0.020136
-0.015146
-0.025126
-0.030117
-0.020136
-0.035107
-0.025126
-0.030117
-0.035107
-0.020136
-0.020136
-0.025126
-0.025126
-0.010155
0.009806
-0.000175
-0.010155
-0.005165
-0.010155
-0.010155
-0.000175
-0.005165
-0.015146
-0.000175
0.009806
0.009806
0.014796
0.014796
0.009806
0.019786
0.019786
0.024777
0.019786
0.014796
0.029767
0.024777
0.029767
0.029767
0.019786
0.014796
0.019786
0.019786
0.009806
0.004816
0.004816
0.004816
-0.000175
-0.000175
-0.005165
-0.000175
-0.015146
-0.010155
-0.015146
-0.000175
-0.015146
-0.005165
-0.000175
0.014796
0.039748
0.049728
0.039748
0.009806
-0.010155
-0.020136
-0.015146
-0.015146
-0.010155
-0.010155
-0.020136
-0.015146
-0.025126
-0.015146
-0.010155
0.039748
0.089651
-0.109962
-0.319555
-0.244700
-0.040097
-0.025126
-0.010155
-0.010155
-0.000175
-0.005165
-0.000175
0.004816
0.009806
0.004816
0.009806
0.004816
0.004816
-0.000175
-0.000175
0.004816
0.004816
0.004816
0.004816
0.004816
-0.000175
-0.005165
-0.000175
0.004816
0.009806
0.004816
0.019786
0.019786
-0.005165
-0.000175
-0.000175
-0.000175
-0.005165
0.009806
0.019786
0.019786
0.034757
0.019786
0.024777
0.034757
0.019786
0.034757
0.029767
0.029767
0.034757
0.039748
0.044738
0.044738
0.044738
0.049728
0.049728
0.054719
0.044738
0.034757
0.024777
0.024777
0.019786
-0.000175
0.004816
0.009806
0.009806
0.009806
0.009806
0.004816
0.009806
0.014796
0.009806
0.004816
0.009806
-0.005165
0.009806
0.004816
-0.000175
0.014796
0.019786
0.014796
0.019786
0.014796
0.039748
0.044738
0.059709
0.039748
0.019786
-0.005165
-0.030117
-0.025126
-0.030117
-0.015146
-0.005165
-0.015146
-0.005165
-0.005165
-0.010155
-0.005165
0.019786
0.079670
0.054719
-0.224739
-0.294603
-0.144894
-0.015146
-0.005165
-0.010155
-0.005165
0.004816
0.014796
0.004816
0.014796
0.009806
-0.000175
0.009806
-0.010155
0.004816
0.009806
-0.000175
0.004816
-0.000175
-0.005165
0.004816
-0.010155
-0.000175
-0.005165
-0.015146
-0.015146
-0.020136
-0.010155
-0.030117
-0.030117
-0.035107
-0.035107
-0.035107
-0.030117
-0.025126
-0.025126
-0.025126
-0.030117
-0.010155
-0.015146
-0.015146
-0.010155
-0.010155
-0.005165
-0.015146
-0.000175
-0.000175
-0.010155
-0.000175
-0.005165
0.009806
0.009806
0.004816
0.004816
0.009806
-0.000175
-0.005165
-0.015146
-0.020136
-0.010155
-0.010155
-0.010155
-0.000175
-0.005165
0.004816
0.004816
-0.000175
0.009806
-0.000175
0.009806
0.014796
0.014796
0.014796
0.019786
0.024777
0.019786
0.019786
0.024777
0.024777
0.029767
0.044738
0.059709
0.069690
0.059709
0.044738
0.019786
0.009806
0.009806
0.014796
0.029767
0.029767
0.024777
0.024777
0.019786
0.009806
0.019786
0.064699
0.094641
-0.025126
-0.324545
-0.254681
-0.030117
0.014796
0.009806
0.024777
0.014796
0.014796
0.019786
0.019786
0.024777
0.024777
0.019786
0.024777
0.029767
0.044738
0.039748
0.039748
0.049728
0.039748
0.039748
0.034757
0.019786
0.024777
0.024777
0.024777
0.019786
0.014796
0.014796
0.024777
0.019786
0.029767
0.024777
0.024777
0.019786
0.019786
0.029767
0.024777
0.029767
0.024777
0.029767
0.029767
0.024777
0.024777
0.024777
0.019786
0.029767
0.029767
0.029767
0.034757
0.029767
0.019786
0.034757
0.029767
0.034757
0.034757
0.029767
0.029767
0.034757
0.024777
0.024777
0.009806
0.014796
0.014796
0.014796
0.024777
0.014796
0.009806
0.019786
0.004816
0.004816
0.004816
0.004816
0.014796
0.009806
0.019786
0.004816
0.009806
0.014796
0.029767
0.044738
0.034757
0.019786
0.004816
-0.010155
-0.020136
-0.010155
-0.005165
-0.005165
-0.015146
-0.020136
-0.010155
-0.015146
-0.015146
-0.015146
0.044738
0.089651
-0.114952
-0.349497
-0.319555
-0.085010
-0.045088
-0.030117
-0.025126
-0.020136
-0.020136
-0.025126
-0.020136
-0.015146
-0.020136
-0.010155
-0.005165
0.004816
-0.010155
0.009806
0.014796
0.014796
0.009806
0.009806
0.009806
0.004816
0.004816
-0.010155
-0.015146
-0.015146
-0.015146
-0.015146
-0.015146
-0.015146
-0.020136
-0.020136
-0.020136
-0.010155
-0.010155
-0.015146
-0.000175
0.004816
-0.005165
0.004816
0.024777
0.019786
0.024777
0.019786
0.024777
0.004816
0.009806
0.024777
0.019786
0.039748
0.019786
0.034757
0.014796
0.014796
0.009806
0.009806
0.014796
0.014796
-0.000175
0.019786
0.004816
0.009806
0.014796
0.014796
0.009806
0.014796
0.014796
0.009806
0.004816
0.009806
0.009806
0.024777
0.019786
0.024777
0.019786
0.014796
0.014796
0.049728
0.059709
0.074680
0.069690
0.049728
0.019786
0.009806
0.014796
0.019786
0.019786
0.019786
0.004816
0.019786
-0.005165
0.019786
0.004816
0.034757
0.099631
0.004816
-0.309574
-0.344506
-0.134913
-0.010155
-0.005165
0.014796
0.014796
0.009806
-0.005165
0.004816
0.004816
-0.000175
-0.005165
-0.000175
-0.005165
0.009806
0.004816
0.014796
0.009806
0.009806
-0.000175
-0.005165
-0.015146
-0.020136
-0.035107
-0.045088
-0.050078
-0.050078
-0.065049
-0.050078
-0.045088
-0.040097
-0.040097
-0.035107
-0.050078
-0.050078
-0.040097
-0.035107
-0.030117
-0.030117
-0.040097
-0.015146
-0.020136
-0.010155
-0.025126
0.004816
-0.000175
0.004816
0.004816
0.009806
0.009806
0.009806
0.014796
0.004816
0.009806
-0.000175
0.004816
0.009806
0.004816
0.004816
-0.005165
-0.000175
0.009806
-0.000175
0.004816
-0.000175
0.004816
0.004816
0.009806
0.009806
0.004816
-0.000175
-0.000175
0.004816
0.004816
0.004816
0.009806
0.024777
0.019786
0.024777
0.044738
0.054719
0.069690
0.049728
0.024777
-0.005165
-0.010155
-0.000175
-0.000175
-0.000175
0.004816
-0.000175
-0.000175
-0.020136
-0.020136
-0.020136
0.029767
0.079670
-0.050078
-0.419361
-0.354487
-0.104971
-0.040097
-0.030117
-0.030117
-0.020136
-0.030117
-0.015146
-0.000175
0.009806
0.009806
0.009806
0.004816
-0.000175
0.014796
0.014796
0.014796
0.014796
0.009806
-0.005165
-0.005165
-0.030117
-0.020136
-0.025126
-0.025126
-0.030117
-0.030117
-0.025126
-0.025126
-0.025126
-0.025126
-0.040097
-0.035107
-0.035107
-0.030117
-0.025126
-0.025126
-0.015146
-0.010155
-0.010155
-0.000175
-0.005165
-0.000175
-0.000175
-0.005165
0.019786
0.014796
0.009806
0.009806
-0.000175
0.004816
-0.005165
-0.005165
0.009806
-0.000175
-0.005165
-0.010155
-0.005165
-0.010155
-0.005165
-0.005165
-0.000175
0.009806
0.014796
0.014796
0.014796
0.024777
0.024777
0.039748
0.039748
0.034757
0.039748
0.044738
0.019786
0.034757
0.039748
0.024777
0.024777
0.019786
0.029767
0.039748
0.054719
0.064699
0.034757
0.004816
-0.020136
-0.005165
-0.000175
0.014796
0.019786
0.019786
0.029767
0.024777
0.024777
0.029767
0.034757
0.089651
0.124583
-0.035107
-0.319555
-0.229729
-0.015146
0.004816
0.009806
0.024777
0.019786
0.014796
0.009806
0.019786
0.024777
0.029767
-0.000175
0.024777
0.024777
0.034757
0.024777
0.014796
0.019786
-0.005165
-0.000175
-0.010155
-0.020136
-0.015146
-0.020136
-0.010155
-0.030117
-0.035107
-0.035107
-0.030117
-0.030117
-0.010155
-0.025126
-0.010155
-0.015146
-0.010155
-0.010155
-0.020136
-0.015146
-0.015146
-0.005165
0.004816
0.004816
-0.000175
-0.000175
-0.000175
0.004816
0.004816
-0.000175
-0.005165
-0.010155
0.004816
-0.005165
0.004816
0.004816
0.014796
0.009806
0.024777
0.024777
0.009806
0.009806
0.004816
0.009806
0.009806
-0.010155
-0.000175
-0.015146
-0.015146
-0.000175
-0.000175
0.004816
0.004816
0.004816
0.014796
0.009806
0.019786
0.024777
0.019786
0.039748
0.049728
0.064699
0.079670
0.069690
0.049728
0.014796
0.009806
0.004816
-0.000175
0.004816
0.004816
0.004816
-0.000175
0.009806
0.009806
0.019786
0.079670
0.134564
-0.055068
-0.304584
-0.274642
-0.035107
0.014796
0.024777
0.029767
0.039748
0.039748
0.044738
0.044738
0.039748
0.049728
0.054719
0.049728
0.034757
0.044738
0.034757
0.024777
0.034757
0.024777
0.039748
0.024777
0.034757
0.029767
0.034757
0.024777
0.029767
0.034757
0.034757
0.044738
0.039748
0.039748
0.034757
0.034757
0.034757
0.044738
0.034757
0.034757
0.049728
0.044738
0.044738
0.044738
0.049728
0.059709
0.059709
0.064699
0.069690
0.074680
0.059709
0.069690
0.084661
0.094641
0.074680
0.059709
0.034757
0.019786
0.004816
-0.005165
-0.020136
-0.020136
-0.030117
-0.030117
-0.045088
-0.030117
-0.035107
-0.035107
-0.040097
-0.030117
-0.035107
-0.025126
-0.020136
-0.010155
-0.015146
-0.005165
-0.010155
-0.010155
-0.005165
-0.000175
0.014796
0.029767
0.024777
-0.015146
-0.030117
-0.035107
-0.035107
-0.035107
-0.035107
-0.030117
-0.030117
-0.030117
-0.020136
-0.020136
-0.015146
0.079670
0.184467
-0.129923
-0.549109
-0.549109
-0.179826
-0.070039
-0.035107
-0.025126
-0.015146
-0.005165
-0.040097
-0.035107
-0.040097
-0.035107
-0.025126
-0.020136
-0.015146
-0.015146
-0.015146
-0.015146
-0.015146
-0.015146
-0.035107
-0.015146
-0.020136
-0.045088
-0.055068
-0.055068
-0.055068
-0.055068
-0.055068
-0.060059
-0.055068
-0.055068
-0.055068
-0.060059
-0.050078
-0.040097
-0.035107
-0.050078
-0.025126
-0.025126
-0.025126
-0.020136
-0.015146
-0.015146
-0.015146
-0.015146
-0.020136
-0.010155
-0.000175
-0.000175
0.004816
-0.005165
-0.010155
-0.010155
-0.010155
-0.020136
-0.010155
-0.005165
0.004816
-0.010155
-0.010155
-0.005165
-0.000175
-0.000175
-0.005165
-0.020136
-0.000175
-0.010155
-0.020136
-0.005165
-0.005165
-0.005165
0.004816
0.004816
0.004816
-0.000175
-0.000175
-0.015146
0.009806
0.039748
0.049728
0.059709
0.059709
0.029767
0.009806
0.009806
-0.000175
0.009806
0.009806
0.004816
0.004816
-0.000175
-0.000175
-0.000175
0.009806
0.104622
0.229380
-0.094991
-0.594022
-0.539128
-0.159865
-0.020136
0.009806
0.014796
0.034757
0.034757
0.029767
0.034757
0.059709
0.044738
0.044738
0.049728
0.049728
0.054719
0.059709
0.054719
0.059709
0.059709
0.059709
0.054719
0.044738
0.054719
0.054719
0.059709
0.059709
0.044738
0.054719
0.044738
0.039748
0.039748
0.029767
0.019786
0.039748
0.024777
0.044738
0.039748
0.039748
0.044738
0.054719
0.054719
0.054719
0.034757
0.044738
0.044738
0.054719
0.049728
0.059709
0.059709
0.049728
0.034757
0.049728
0.044738
0.039748
0.049728
0.054719
0.049728
0.034757
0.044738
0.024777
0.034757
0.034757
0.034757
0.039748
0.039748
0.029767
0.024777
0.029767
0.029767
0.019786
0.014796
0.014796
0.009806
0.024777
0.014796
0.009806
0.024777
0.024777
0.029767
0.044738
0.059709
0.059709
0.049728
0.009806
-0.020136
-0.020136
-0.025126
-0.020136
-0.015146
-0.015146
-0.015146
-0.030117
-0.030117
-0.040097
-0.015146
0.074680
0.109612
-0.254681
-0.599012
-0.444313
-0.109962
-0.055068
-0.035107
-0.015146
-0.010155
-0.015146
-0.010155
-0.005165
-0.005165
0.014796
0.019786
0.019786
0.019786
0.019786
0.014796
-0.010155
-0.020136
-0.025126
-0.025126
-0.015146
-0.015146
-0.020136
-0.005165
-0.015146
-0.015146
-0.005165
-0.005165
-0.010155
-0.020136
-0.010155
-0.000175
0.014796
0.019786
0.039748
0.044738
0.044738
0.039748
0.044738
0.029767
0.039748
0.034757
0.039748
0.044738
0.049728
0.049728
0.044738
0.034757
0.029767
0.039748
0.034757
0.054719
0.054719
0.059709
0.054719
0.049728
0.044738
0.054719
0.059709
0.059709
0.054719
0.049728
0.034757
0.049728
0.059709
0.059709
0.064699
0.054719
0.044738
0.049728
0.044738
0.039748
0.034757
0.039748
0.034757
0.029767
0.034757
0.029767
0.034757
0.049728
0.044738
0.069690
0.074680
0.054719
0.029767
-0.000175
-0.005165
0.014796
0.014796
0.034757
0.039748
0.039748
0.014796
0.014796
0.024777
0.034757
0.109612
0.059709
-0.279632
-0.459283
-0.289613
-0.075029
-0.035107
-0.025126
-0.025126
0.004816
0.009806
0.009806
0.004816
-0.015146
-0.030117
-0.010155
-0.005165
-0.065049
-0.104971
-0.030117
-0.020136
-0.060059
-0.065049
-0.055068
-0.065049
-0.065049
-0.055068
-0.040097
-0.020136
-0.040097
-0.030117
-0.050078
-0.055068
-0.050078
-0.050078
-0.055068
-0.055068
-0.065049
-0.055068
-0.050078
-0.050078
-0.045088
-0.035107
-0.010155
-0.015146
-0.010155
-0.005165
-0.010155
-0.005165
0.014796
0.029767
0.019786
0.019786
0.019786
0.004816
-0.000175
0.024777
0.029767
0.004816
-0.010155
-0.005165
0.004816
0.014796
0.019786
0.024777
0.039748
0.034757
0.029767
0.034757
0.014796
0.004816
0.004816
0.019786
0.029767
0.029767
0.044738
0.029767
0.024777
0.039748
0.049728
0.059709
0.074680
0.094641
0.094641
0.069690
0.039748
0.019786
0.019786
0.034757
0.039748
0.029767
0.029767
0.024777
-0.005165
0.014796
0.024777
0.034757
0.084661
0.174486
0.044738
-0.264661
-0.334526
-0.124933
0.009806
0.034757
0.029767
0.034757
0.034757
0.034757
0.044738
0.049728
0.039748
0.034757
0.029767
0.039748
0.039748
0.044738
0.034757
0.029767
0.019786
0.009806
-0.015146
0.004816
0.009806
0.009806
0.024777
0.029767
0.029767
0.014796
-0.000175
-0.005165
-0.005165
-0.005165
-0.010155
-0.010155
-0.000175
-0.010155
-0.005165
0.009806
0.009806
0.014796
0.019786
0.014796
0.019786
0.019786
0.014796
0.014796
0.009806
0.004816
0.014796
0.019786
0.009806
-0.000175
-0.005165
0.009806
0.014796
-0.000175
-0.000175
0.014796
0.009806
0.019786
0.004816
-0.000175
-0.000175
-0.005165
-0.010155
-0.000175
-0.015146
-0.010155
-0.010155
-0.000175
-0.005165
-0.010155
-0.005165
-0.020136
-0.010155
-0.010155
-0.005165
0.009806
0.034757
0.054719
0.049728
0.019786
-0.005165
-0.020136
-0.020136
-0.020136
-0.020136
-0.005165
-0.020136
-0.015146
-0.015146
-0.010155
-0.015146
0.009806
0.109612
0.084661
-0.249690
-0.429342
-0.299594
-0.075029
-0.035107
-0.010155
-0.005165
-0.000175
0.014796
0.019786
0.019786
0.014796
0.014796
0.004816
0.029767
0.024777
0.024777
0.044738
0.039748
0.034757
0.024777
0.004816
-0.005165
-0.005165
-0.005165
-0.010155
-0.005165
-0.005165
-0.010155
-0.000175
-0.005165
-0.000175
-0.010155
-0.000175
-0.005165
-0.005165
-0.005165
-0.000175
-0.000175
-0.000175
0.009806
0.019786
-0.000175
0.034757
0.034757
0.034757
0.039748
0.019786
0.034757
0.029767
0.019786
0.019786
0.009806
0.014796
0.019786
0.014796
0.019786
-0.000175
-0.000175
-0.005165
-0.000175
-0.000175
0.004816
-0.005165
-0.000175
-0.000175
-0.005165
-0.005165
-0.020136
-0.010155
-0.015146
-0.015146
-0.005165
-0.015146
-0.020136
-0.005165
-0.005165
-0.015146
-0.005165
-0.000175
0.009806
0.024777
0.039748
0.024777
-0.010155
-0.035107
-0.035107
-0.050078
-0.040097
-0.030117
-0.025126
-0.040097
-0.035107
-0.030117
-0.045088
-0.040097
0.004816
0.094641
-0.075029
-0.494216
-0.474254
-0.199787
-0.070039
-0.060059
-0.045088
-0.035107
-0.035107
-0.035107
-0.045088
-0.035107
-0.030117
-0.035107
-0.030117
-0.035107
-0.025126
-0.015146
-0.015146
-0.010155
-0.015146
-0.005165
0.004816
0.004816
0.014796
0.004816
-0.000175
-0.005165
-0.005165
0.004816
-0.010155
-0.005165
-0.010155
-0.025126
-0.015146
-0.000175
-0.000175
-0.005165
-0.005165
-0.000175
-0.000175
0.004816
0.009806
-0.000175
-0.010155
0.009806
0.004816
-0.000175
-0.000175
-0.005165
-0.005165
-0.000175
-0.000175
0.004816
-0.005165
-0.000175
-0.000175
0.004816
0.009806
0.014796
0.009806
0.014796
0.019786
0.009806
0.004816
0.009806
0.004816
-0.000175
-0.010155
-0.015146
-0.015146
-0.005165
-0.020136
-0.030117
-0.035107
-0.025126
-0.005165
-0.005165
-0.005165
-0.000175
0.014796
0.019786
-0.000175
-0.005165
-0.025126
-0.045088
-0.070039
-0.045088
-0.010155
0.009806
0.044738
0.049728
0.064699
0.064699
0.054719
0.054719
0.079670
0.149535
0.064699
-0.279632
-0.379438
-0.174836
-0.030117
0.009806
0.024777
0.044738
0.054719
0.074680
0.074680
0.089651
0.079670
0.084661
0.079670
0.064699
0.034757
0.024777
0.024777
0.024777
0.029767
0.014796
-0.005165
-0.010155
-0.005165
-0.005165
-0.010155
0.004816
0.004816
-0.000175
-0.000175
-0.000175
0.009806
0.009806
0.004816
0.004816
-0.010155
-0.000175
0.004816
0.009806
-0.005165
-0.005165
0.009806
0.014796
0.029767
0.009806
-0.005165
0.009806
0.014796
0.009806
0.004816
0.004816
0.019786
0.034757
0.039748
0.039748
0.044738
0.044738
0.034757
0.039748
0.029767
0.014796
0.004816
-0.005165
0.009806
0.004816
0.004816
-0.000175
-0.000175
-0.005165
0.014796
-0.000175
-0.000175
-0.005165
-0.015146
-0.010155
-0.020136
-0.015146
-0.020136
-0.015146
-0.015146
-0.005165
0.024777
0.034757
0.054719
0.019786
-0.000175
-0.015146
-0.030117
-0.035107
-0.035107
-0.030117
-0.020136
-0.005165
0.009806
0.009806
0.014796
0.029767
0.094641
0.154525
-0.085010
-0.349497
-0.299594
-0.030117
0.019786
0.024777
0.044738
0.039748
0.044738
0.059709
0.049728
0.054719
0.054719
0.044738
0.034757
0.029767
0.019786
0.014796
0.019786
0.024777
0.019786
0.024777
0.014796
0.014796
0.009806
0.004816
0.004816
0.004816
0.004816
-0.010155
0.009806
0.004816
0.009806
0.009806
0.019786
0.024777
0.039748
0.029767
0.019786
0.029767
0.034757
0.029767
0.019786
0.034757
0.044738
0.054719
0.049728
0.064699
0.074680
0.079670
0.089651
0.079670
0.064699
0.054719
0.054719
0.044738
0.039748
0.039748
0.044738
0.049728
0.039748
0.044738
0.044738
0.054719
0.054719
0.059709
