0.004116
0.000062
0.000062
0.008170
0.008170
0.008170
0.004116
0.004116
0.012225
0.020334
0.028442
-0.036428
-0.117516
-0.206713
-0.328345
-0.389161
-0.304018
-0.166169
-0.060754
-0.012102
0.000062
0.008170
0.012225
0.012225
0.020334
0.020334
0.016279
0.024388
0.024388
0.028442
0.028442
0.028442
0.032497
0.032497
0.032497
0.040606
0.044660
0.052769
0.052769
0.056823
0.060878
0.052769
0.056823
0.056823
0.048714
0.044660
0.032497
0.028442
0.024388
0.016279
0.016279
0.008170
0.012225
0.012225
0.008170
0.012225
0.008170
0.012225
0.012225
0.008170
0.020334
0.020334
-0.056700
-0.141842
-0.243202
-0.295909
-0.251311
-0.129679
-0.036428
0.000062
0.020334
0.016279
0.028442
0.028442
0.020334
0.024388
0.020334
0.024388
0.020334
0.020334
0.024388
0.028442
0.032497
0.040606
0.044660
0.052769
0.052769
0.056823
0.064932
0.056823
0.056823
0.052769
0.044660
0.044660
0.032497
0.024388
0.020334
0.012225
0.012225
0.004116
0.008170
0.004116
0.004116
0.008170
0.004116
0.008170
0.012225
0.012225
0.016279
0.020334
0.024388
0.028442
0.024388
0.024388
0.024388
0.016279
0.024388
0.008170
-0.060754
-0.141842
-0.239148
-0.328345
-0.324290
-0.202658
-0.093190
-0.020210
0.004116
0.012225
0.016279
0.028442
0.020334
0.024388
0.020334
0.020334
0.024388
0.020334
0.028442
0.032497
0.028442
0.040606
0.044660
0.052769
0.056823
0.068986
0.077095
0.073041
0.077095
0.073041
0.060878
0.056823
0.040606
0.036551
0.024388
0.016279
0.012225
0.004116
0.000062
0.004116
0.000062
0.004116
0.004116
0.004116
0.008170
0.008170
0.016279
0.012225
0.012225
0.032497
0.032497
-0.048591
-0.129679
-0.251311
-0.356725
-0.352671
-0.206713
-0.093190
-0.020210
0.004116
0.008170
0.016279
0.024388
0.020334
0.024388
0.028442
0.028442
0.032497
0.032497
0.040606
0.040606
0.044660
0.048714
0.052769
0.056823
0.068986
0.073041
0.081150
0.077095
0.077095
0.073041
0.060878
0.056823
0.040606
0.028442
0.020334
0.008170
0.004116
0.008170
0.004116
0.008170
0.004116
0.004116
0.012225
0.008170
0.016279
0.016279
0.016279
0.024388
0.024388
0.028442
0.020334
0.016279
0.016279
0.012225
0.016279
0.012225
0.008170
0.012225
0.008170
0.004116
0.016279
0.016279
0.020334
-0.048591
-0.125625
-0.231039
-0.328345
-0.328345
-0.210767
-0.101298
-0.020210
0.012225
0.016279
0.020334
0.028442
0.028442
0.028442
0.024388
0.020334
0.016279
0.012225
0.016279
0.020334
0.020334
0.024388
0.024388
0.032497
0.040606
0.040606
0.044660
0.048714
0.048714
0.056823
0.048714
0.052769
0.048714
0.036551
0.032497
0.024388
0.024388
0.024388
0.016279
0.020334
0.012225
0.012225
0.004116
0.000062
0.000062
0.000062
0.000062
0.000062
0.000062
0.000062
0.000062
0.004116
0.008170
0.004116
0.008170
0.004116
0.008170
0.016279
0.024388
-0.016156
-0.105353
-0.190495
-0.316181
-0.372943
-0.299964
-0.154006
-0.048591
0.000062
0.012225
0.012225
0.020334
0.020334
0.020334
0.020334
0.020334
0.024388
0.016279
0.024388
0.024388
0.028442
0.032497
0.032497
0.040606
0.044660
0.048714
0.064932
0.064932
0.073041
0.081150
0.077095
0.077095
0.064932
0.048714
0.036551
0.020334
0.016279
0.004116
0.004116
0.004116
0.000062
0.000062
0.008170
0.004116
0.008170
0.004116
0.008170
0.008170
0.008170
0.012225
0.016279
0.016279
0.024388
0.024388
0.032497
0.032497
0.024388
0.024388
0.016279
0.016279
0.012225
0.008170
0.012225
0.008170
0.008170
0.016279
0.020334
0.012225
-0.076972
-0.158060
-0.255365
-0.360780
-0.364834
-0.239148
-0.109407
-0.028319
0.004116
0.012225
0.020334
0.028442
0.024388
0.032497
0.028442
0.024388
0.028442
0.024388
0.028442
0.024388
0.024388
0.032497
0.028442
0.040606
0.040606
0.044660
0.056823
0.056823
0.060878
0.060878
0.064932
0.064932
0.060878
0.052769
0.044660
0.036551
0.032497
0.028442
0.020334
0.012225
0.008170
0.000062
0.000062
0.000062
0.000062
0.000062
0.000062
0.000062
0.000062
0.000062
0.000062
0.008170
0.012225
0.028442
-0.012102
-0.105353
-0.194550
-0.316181
-0.356725
-0.247257
-0.109407
-0.024265
0.004116
0.016279
0.016279
0.024388
0.016279
0.020334
0.024388
0.024388
0.028442
0.032497
0.032497
0.036551
0.036551
0.036551
0.040606
0.044660
0.056823
0.060878
0.064932
0.077095
0.077095
0.077095
0.073041
0.068986
0.060878
0.044660
0.028442
0.020334
0.008170
0.008170
0.000062
0.004116
0.000062
0.000062
0.000062
0.000062
0.004116
0.004116
0.008170
0.016279
0.016279
0.020334
0.024388
0.028442
0.032497
0.032497
0.032497
0.024388
0.016279
0.024388
0.028442
0.000062
-0.089135
-0.178332
-0.291855
-0.360780
-0.320236
-0.178332
-0.064809
0.000062
0.012225
0.016279
0.024388
0.020334
0.024388
0.028442
0.024388
0.036551
0.036551
0.040606
0.044660
0.032497
0.032497
0.032497
0.032497
0.040606
0.044660
0.048714
0.052769
0.052769
0.060878
0.052769
0.056823
0.048714
0.040606
0.040606
0.028442
0.024388
0.020334
0.016279
0.020334
0.012225
0.012225
0.004116
0.000062
0.004116
0.000062
0.000062
0.008170
0.004116
0.008170
0.008170
0.008170
0.016279
0.012225
0.016279
0.012225
0.016279
0.020334
0.016279
0.020334
0.016279
0.012225
0.012225
0.012225
0.012225
0.008170
0.004116
0.008170
0.008170
0.008170
0.012225
0.008170
0.008170
0.008170
0.004116
0.008170
0.004116
0.004116
0.000062
0.008170
0.024388
0.000062
-0.076972
-0.158060
-0.271583
-0.372943
-0.368889
-0.235093
-0.101298
-0.020210
0.008170
0.012225
0.020334
0.028442
0.020334
0.028442
0.020334
0.020334
0.020334
0.020334
0.024388
0.024388
0.024388
0.032497
0.028442
0.036551
0.036551
0.036551
0.040606
0.036551
0.040606
0.044660
0.044660
0.048714
0.044660
0.036551
0.028442
0.024388
0.024388
0.020334
0.008170
0.008170
0.004116
0.004116
0.000062
0.000062
0.004116
0.000062
0.000062
0.000062
0.000062
0.000062
-0.003993
0.000062
0.000062
0.004116
0.012225
0.012225
0.016279
0.016279
0.016279
0.024388
0.024388
0.016279
0.016279
0.012225
0.016279
0.016279
0.012225
0.012225
0.012225
0.016279
-0.040482
-0.129679
-0.222930
-0.332399
-0.360780
-0.259420
-0.133734
-0.036428
0.004116
0.012225
0.020334
0.028442
0.024388
0.028442
0.028442
0.028442
0.028442
0.024388
0.028442
0.032497
0.032497
0.040606
0.036551
0.040606
0.044660
0.048714
0.056823
0.064932
0.068986
0.077095
0.068986
0.068986
0.056823
0.040606
0.028442
0.016279
0.008170
0.012225
0.004116
0.004116
0.000062
0.000062
0.004116
0.004116
0.008170
0.004116
0.004116
0.008170
0.008170
0.012225
0.016279
0.012225
0.024388
0.020334
0.028442
0.028442
0.020334
0.024388
0.024388
0.024388
0.020334
0.020334
0.020334
0.012225
0.016279
0.032497
-0.028319
-0.125625
-0.210767
-0.336453
-0.401324
-0.328345
-0.170223
-0.056700
0.000062
0.020334
0.028442
0.036551
0.032497
0.036551
0.032497
0.028442
0.028442
0.028442
0.024388
0.028442
0.028442
0.036551
0.032497
0.036551
0.048714
0.048714
0.060878
0.068986
0.068986
0.073041
0.073041
0.077095
0.073041
0.060878
0.056823
0.044660
0.036551
0.028442
0.012225
0.004116
0.000062
0.000062
0.000062
0.000062
0.000062
0.000062
0.000062
0.000062
0.000062
0.008170
0.008170
0.008170
0.008170
0.008170
0.012225
0.016279
0.016279
0.020334
0.020334
0.024388
0.028442
0.020334
0.024388
0.020334
0.012225
0.028442
0.008170
-0.085081
-0.170223
-0.275637
-0.368889
-0.356725
-0.214821
-0.093190
-0.016156
0.008170
0.012225
0.016279
0.020334
0.012225
0.020334
0.020334
0.024388
0.028442
0.028442
0.032497
0.032497
0.020334
0.020334
0.024388
0.028442
0.036551
0.044660
0.052769
0.056823
0.060878
0.064932
0.060878
0.060878
0.052769
0.048714
0.036551
0.024388
0.020334
0.012225
0.012225
0.012225
0.004116
0.012225
0.008170
0.008170
0.008170
0.000062
0.000062
0.000062
-0.003993
-0.003993
-0.003993
0.000062
0.004116
0.004116
0.008170
0.008170
0.004116
0.008170
0.008170
0.012225
0.012225
0.004116
0.012225
0.012225
0.016279
0.016279
0.016279
0.016279
0.012225
0.012225
0.012225
0.004116
0.008170
0.000062
0.000062
0.004116
0.000062
0.004116
0.008170
0.008170
-0.056700
-0.141842
-0.231039
-0.356725
-0.409433
-0.316181
-0.162114
-0.052646
0.000062
0.016279
0.028442
0.036551
0.028442
0.028442
0.020334
0.020334
0.020334
0.020334
0.028442
0.028442
0.020334
0.028442
0.028442
0.036551
0.040606
0.040606
0.052769
0.048714
0.052769
0.060878
0.056823
0.064932
0.060878
0.056823
0.052769
0.048714
0.040606
0.028442
0.024388
0.012225
0.004116
0.000062
0.000062
-0.003993
0.000062
0.000062
-0.003993
0.000062
0.000062
0.000062
0.000062
0.000062
0.004116
0.000062
0.004116
0.016279
0.016279
0.024388
0.024388
0.020334
0.024388
0.028442
0.028442
-0.048591
-0.141842
-0.247257
-0.344562
-0.344562
-0.214821
-0.093190
-0.016156
0.012225
0.016279
0.020334
0.024388
0.020334
0.024388
0.028442
0.024388
0.032497
0.032497
0.032497
0.036551
0.040606
0.044660
0.040606
0.044660
0.052769
0.044660
0.052769
0.044660
0.052769
0.052769
0.048714
0.048714
0.044660
0.036551
0.032497
0.020334
0.020334
0.012225
0.016279
0.016279
0.008170
0.008170
0.012225
0.008170
0.012225
0.012225
0.016279
0.016279
0.016279
0.024388
0.020334
0.016279
0.016279
0.012225
0.024388
0.000062
-0.093190
-0.178332
-0.299964
-0.368889
-0.304018
-0.158060
-0.056700
0.000062
0.016279
0.020334
0.032497
0.032497
0.028442
0.036551
0.028442
0.032497
0.032497
0.036551
0.036551
0.032497
0.036551
0.032497
0.032497
0.040606
0.040606
0.048714
0.056823
0.060878
0.064932
0.064932
0.060878
0.056823
0.048714
0.044660
0.036551
0.020334
0.024388
0.020334
0.020334
0.020334
0.016279
0.016279
0.012225
0.008170
0.008170
0.008170
0.016279
-0.032374
-0.113462
-0.198604
-0.295909
-0.312127
-0.206713
-0.093190
-0.016156
0.008170
0.020334
0.020334
0.024388
0.024388
0.024388
0.028442
0.024388
0.032497
0.028442
0.032497
0.040606
0.036551
0.036551
0.036551
0.036551
0.036551
0.036551
0.044660
0.044660
0.044660
0.044660
0.036551
0.032497
0.028442
0.020334
0.016279
0.012225
0.000062
0.004116
0.000062
0.004116
0.008170
0.004116
0.008170
0.004116
0.008170
0.008170
0.000062
0.004116
0.000062
0.004116
0.004116
0.000062
0.008170
0.000062
0.004116
0.008170
0.004116
0.012225
0.012225
0.008170
0.008170
0.004116
0.008170
0.004116
0.008170
0.012225
0.008170
0.012225
0.012225
0.012225
0.020334
0.020334
0.016279
0.020334
0.016279
0.020334
0.016279
0.008170
0.008170
0.016279
-0.032374
-0.109407
-0.190495
-0.308073
-0.368889
-0.308073
-0.162114
-0.056700
-0.003993
0.004116
0.012225
0.020334
0.012225
0.020334
0.020334
0.024388
0.028442
0.028442
0.036551
0.036551
0.032497
0.044660
0.044660
0.052769
0.060878
0.056823
0.060878
0.060878
0.056823
0.052769
0.048714
0.052769
0.048714
0.040606
0.040606
0.032497
0.024388
0.020334
0.016279
0.012225
0.008170
0.012225
0.012225
0.012225
0.012225
0.008170
0.016279
0.012225
0.016279
0.012225
0.008170
0.012225
0.008170
0.004116
0.012225
0.012225
0.012225
0.020334
0.020334
0.032497
0.008170
-0.076972
-0.158060
-0.283746
-0.344562
-0.279692
-0.141842
-0.040482
0.004116
0.024388
0.024388
0.028442
0.024388
0.024388
0.020334
0.016279
0.016279
0.016279
0.016279
0.024388
0.020334
0.032497
0.028442
0.032497
0.040606
0.044660
0.052769
0.056823
0.056823
0.064932
0.064932
0.068986
0.064932
0.052769
0.040606
0.024388
0.016279
0.012225
0.000062
0.000062
0.000062
0.000062
0.000062
0.000062
0.004116
0.000062
0.004116
0.004116
0.008170
0.012225
0.016279
0.016279
0.024388
0.024388
0.020334
-0.052646
-0.133734
-0.243202
-0.332399
-0.320236
-0.182386
-0.081026
-0.020210
0.000062
0.004116
0.008170
0.008170
0.012225
0.012225
0.012225
0.020334
0.016279
0.012225
0.020334
0.020334
0.020334
0.028442
0.028442
0.036551
0.040606
0.048714
0.056823
0.056823
0.064932
0.056823
0.052769
0.040606
0.036551
0.032497
0.024388
0.012225
0.016279
0.008170
0.012225
0.008170
0.004116
0.008170
0.000062
0.000062
0.004116
0.000062
0.004116
0.012225
0.008170
0.012225
0.012225
0.016279
0.012225
0.008170
0.012225
0.012225
0.016279
0.012225
-0.056700
-0.129679
-0.222930
-0.312127
-0.295909
-0.170223
-0.068863
-0.008047
0.012225
0.016279
0.020334
0.024388
0.020334
0.028442
0.028442
0.024388
0.024388
0.020334
0.024388
0.024388
0.028442
0.032497
0.032497
0.040606
0.048714
0.048714
0.056823
0.056823
0.060878
0.064932
0.060878
0.056823
0.052769
0.040606
0.036551
0.024388
0.016279
0.016279
0.008170
0.012225
0.004116
0.004116
0.004116
0.004116
0.012225
0.012225
0.008170
0.016279
0.016279
0.020334
0.020334
0.016279
0.020334
0.016279
0.016279
0.020334
0.024388
0.024388
-0.052646
-0.133734
-0.231039
-0.328345
-0.324290
-0.186441
-0.076972
-0.012102
0.012225
0.024388
0.020334
0.028442
0.024388
0.024388
0.032497
0.028442
0.032497
0.028442
0.032497
0.032497
0.028442
0.036551
0.036551
0.040606
0.048714
0.052769
0.060878
0.064932
0.064932
0.068986
0.064932
0.068986
0.060878
0.048714
0.040606
0.032497
0.024388
0.020334
0.012225
0.012225
0.004116
0.000062
0.004116
0.000062
0.000062
0.004116
0.000062
0.008170
0.008170
0.008170
0.012225
0.008170
0.016279
0.020334
0.020334
0.036551
-0.008047
-0.097244
-0.178332
-0.295909
-0.336453
-0.226985
-0.101298
-0.028319
0.004116
0.020334
0.016279
0.020334
0.016279
0.016279
0.024388
0.016279
0.028442
0.024388
0.024388
0.028442
0.024388
0.028442
0.032497
0.036551
0.044660
0.044660
0.052769
0.052769
0.056823
0.060878
0.056823
0.056823
0.048714
0.036551
0.036551
0.024388
0.016279
0.012225
0.004116
0.004116
0.000062
0.000062
0.000062
0.000062
0.000062
0.000062
0.000062
0.008170
0.008170
0.016279
0.016279
0.016279
0.024388
0.024388
0.024388
0.020334
0.016279
0.020334
0.016279
0.000062
-0.076972
-0.149951
-0.255365
-0.340508
-0.316181
-0.182386
-0.076972
-0.012102
0.008170
0.012225
0.020334
0.024388
0.020334
0.024388
0.024388
0.028442
0.024388
0.016279
0.020334
0.016279
0.016279
0.024388
0.028442
0.032497
0.036551
0.040606
0.048714
0.048714
0.056823
0.056823
0.048714
0.048714
0.036551
0.032497
0.028442
0.020334
0.020334
0.012225
0.012225
0.008170
0.004116
0.004116
0.000062
0.004116
0.008170
0.004116
0.008170
0.004116
0.004116
0.008170
0.008170
0.016279
0.016279
0.016279
0.020334
0.024388
-0.036428
-0.121570
-0.214821
-0.316181
-0.320236
-0.194550
-0.081026
-0.016156
0.008170
0.016279
0.016279
0.020334
0.016279
0.020334
0.020334
0.020334
0.024388
0.020334
0.020334
0.024388
0.024388
0.028442
0.024388
0.028442
0.040606
0.040606
0.048714
0.048714
0.044660
0.052769
0.048714
0.052769
0.044660
0.028442
0.028442
0.016279
0.020334
0.012225
0.004116
0.012225
0.008170
0.000062
0.004116
0.000062
0.000062
0.000062
0.000062
0.004116
0.000062
0.004116
0.008170
0.008170
0.020334
0.016279
-0.056700
-0.137788
-0.239148
-0.332399
-0.312127
-0.178332
-0.076972
-0.016156
0.008170
0.012225
0.016279
0.024388
0.020334
0.020334
0.020334
0.016279
0.024388
0.012225
0.020334
0.020334
0.020334
0.028442
0.028442
0.036551
0.048714
0.048714
0.056823
0.056823
0.056823
0.060878
0.052769
0.048714
0.044660
0.032497
0.028442
0.016279
0.012225
0.000062
0.000062
0.000062
0.000062
0.004116
0.000062
0.000062
0.000062
0.000062
0.000062
0.008170
0.008170
0.016279
0.016279
0.016279
0.028442
0.016279
0.020334
0.016279
0.024388
0.024388
-0.016156
-0.105353
-0.190495
-0.308073
-0.356725
-0.271583
-0.133734
-0.044537
0.000062
0.008170
0.008170
0.020334
0.016279
0.016279
0.020334
0.020334
0.028442
0.028442
0.028442
0.036551
0.032497
0.036551
0.040606
0.040606
0.052769
0.052769
0.060878
0.064932
0.064932
0.064932
0.060878
0.056823
0.052769
0.036551
0.028442
0.016279
0.012225
0.008170
0.004116
0.004116
0.000062
0.008170
0.008170
0.012225
0.016279
0.008170
0.012225
0.012225
0.020334
0.020334
0.016279
0.016279
0.016279
0.020334
0.020334
0.016279
0.020334
0.016279
0.016279
0.016279
0.008170
0.008170
0.004116
0.004116
0.008170
0.004116
0.012225
0.008170
0.008170
0.008170
0.008170
0.016279
0.024388
-0.020210
-0.105353
-0.186441
-0.304018
-0.364834
-0.291855
-0.149951
-0.052646
0.000062
0.012225
0.016279
0.020334
0.020334
0.020334
0.020334
0.016279
0.020334
0.020334
0.020334
0.028442
0.028442
0.036551
0.036551
0.040606
0.048714
0.048714
0.056823
0.060878
0.060878
0.064932
0.064932
0.064932
0.056823
0.040606
0.036551
0.024388
0.016279
0.012225
0.008170
0.008170
0.004116
0.000062
0.008170
0.004116
0.008170
0.004116
0.000062
0.008170
0.008170
0.000062
-0.072918
-0.154006
-0.267529
-0.324290
-0.259420
-0.133734
-0.040482
0.000062
0.012225
0.012225
0.016279
0.012225
0.016279
0.020334
0.012225
0.020334
0.024388
0.024388
0.028442
0.032497
0.036551
0.036551
0.036551
0.044660
0.044660
0.048714
0.056823
0.052769
0.052769
0.048714
0.044660
0.040606
0.028442
0.028442
0.020334
0.012225
0.012225
0.004116
0.008170
0.004116
0.004116
0.008170
0.004116
0.008170
0.016279
0.016279
0.020334
0.016279
0.016279
0.024388
0.020334
0.024388
0.020334
0.016279
0.016279
0.012225
0.008170
0.008170
0.000062
0.004116
0.000062
0.000062
0.004116
0.000062
0.004116
0.012225
0.008170
0.016279
0.008170
0.008170
0.012225
0.008170
0.008170
0.004116
0.004116
0.012225
0.004116
0.008170
0.004116
0.008170
0.004116
0.000062
0.004116
0.004116
0.004116
0.008170
0.000062
0.004116
0.004116
0.008170
0.012225
0.012225
0.012225
0.024388
-0.003993
-0.097244
-0.170223
-0.287801
-0.385106
-0.368889
-0.222930
-0.097244
-0.016156
0.008170
0.016279
0.024388
0.028442
0.020334
0.024388
0.016279
0.016279
0.016279
0.012225
0.020334
0.016279
0.020334
0.032497
0.032497
0.044660
0.044660
0.048714
0.056823
0.056823
0.060878
0.060878
0.060878
0.052769
0.048714
0.044660
0.044660
0.036551
0.028442
0.020334
0.016279
0.016279
0.012225
0.008170
0.012225
0.008170
0.012225
0.012225
0.008170
0.012225
0.008170
0.008170
0.012225
0.008170
0.016279
0.012225
0.020334
0.024388
0.024388
0.020334
0.028442
0.024388
0.028442
0.028442
0.020334
0.024388
0.016279
0.020334
0.016279
0.008170
0.012225
0.008170
0.012225
0.016279
0.012225
0.020334
0.024388
-0.048591
-0.129679
-0.222930
-0.332399
-0.360780
-0.255365
-0.117516
-0.032374
0.004116
0.012225
0.016279
0.020334
0.012225
0.016279
0.012225
0.016279
0.020334
0.016279
0.024388
0.020334
0.024388
0.032497
0.032497
0.036551
0.036551
0.040606
0.048714
0.052769
0.060878
0.060878
0.060878
0.060878
0.052769
0.044660
0.036551
0.024388
0.020334
0.008170
0.004116
0.000062
-0.003993
-0.003993
-0.008047
-0.003993
-0.008047
-0.003993
0.000062
0.000062
-0.016156
-0.101298
-0.178332
-0.287801
-0.336453
-0.263474
-0.133734
-0.040482
0.000062
0.012225
0.012225
0.016279
0.012225
0.012225
0.016279
0.012225
0.020334
0.020334
0.020334
0.028442
0.028442
0.040606
0.044660
0.048714
0.056823
0.052769
0.056823
0.060878
0.060878
0.060878
0.052769
0.052769
0.048714
0.028442
0.024388
0.016279
0.008170
0.004116
0.000062
0.004116
0.004116
0.000062
0.008170
0.000062
0.008170
0.008170
0.004116
0.016279
0.012225
0.016279
0.020334
0.016279
0.020334
0.020334
0.016279
0.020334
0.016279
0.012225
0.012225
0.012225
0.016279
0.012225
0.004116
0.008170
0.004116
0.004116
0.008170
0.004116
0.004116
0.000062
0.000062
0.008170
0.004116
0.012225
0.012225
0.008170
0.012225
0.008170
0.012225
0.012225
0.008170
0.012225
0.012225
0.008170
0.008170
0.008170
0.004116
0.004116
0.004116
0.000062
0.004116
0.000062
0.004116
0.000062
0.000062
0.004116
0.004116
0.016279
0.016279
-0.048591
-0.125625
-0.222930
-0.344562
-0.397269
-0.299964
-0.141842
-0.040482
0.000062
0.012225
0.016279
0.020334
0.016279
0.020334
0.016279
0.016279
0.020334
0.016279
0.020334
0.020334
0.024388
0.036551
0.036551
0.044660
0.048714
0.040606
0.048714
0.044660
0.048714
0.048714
0.052769
0.060878
0.052769
0.052769
0.048714
0.044660
0.036551
0.024388
0.020334
0.012225
0.016279
0.020334
0.012225
0.012225
0.000062
0.000062
0.008170
0.000062
0.000062
0.000062
0.000062
0.000062
0.004116
0.012225
0.008170
0.012225
0.016279
0.020334
0.032497
-0.036428
-0.125625
-0.235093
-0.332399
-0.320236
-0.190495
-0.081026
-0.016156
0.008170
0.016279
0.016279
0.024388
0.016279
0.024388
0.020334
0.020334
0.024388
0.024388
0.032497
0.036551
0.032497
0.032497
0.032497
0.032497
0.040606
0.040606
0.044660
0.044660
0.048714
0.056823
0.048714
0.052769
0.044660
0.032497
0.028442
0.020334
0.020334
0.016279
0.008170
0.004116
0.000062
0.000062
0.004116
0.000062
0.000062
0.000062
0.000062
0.004116
0.004116
0.004116
0.004116
0.004116
0.012225
0.008170
0.012225
0.008170
0.008170
0.012225
0.008170
0.012225
0.012225
0.004116
0.004116
0.000062
0.008170
0.008170
0.004116
0.004116
0.000062
0.004116
0.004116
0.000062
0.000062
0.000062
0.000062
0.008170
0.000062
0.004116
0.004116
0.000062
0.004116
0.000062
0.004116
0.000062
0.000062
0.000062
0.000062
0.004116
0.008170
-0.012102
-0.105353
-0.178332
-0.291855
-0.397269
-0.389161
-0.243202
-0.109407
-0.032374
0.000062
0.000062
0.012225
0.012225
0.012225
0.016279
0.016279
0.024388
0.024388
0.024388
0.028442
0.024388
0.028442
0.028442
0.032497
0.040606
0.036551
0.040606
0.044660
0.040606
0.044660
0.044660
0.044660
0.048714
0.040606
0.044660
0.040606
0.032497
0.032497
0.024388
0.020334
0.020334
0.012225
0.012225
0.004116
0.000062
0.000062
0.000062
0.000062
0.000062
0.000062
0.000062
0.000062
0.000062
0.004116
0.000062
0.004116
0.012225
0.012225
0.016279
0.024388
0.024388
0.032497
0.040606
0.000062
-0.105353
-0.190495
-0.316181
-0.372943
-0.312127
-0.154006
-0.052646
0.000062
0.008170
0.012225
0.020334
0.016279
0.024388
0.024388
0.024388
0.032497
0.032497
0.036551
0.032497
0.028442
0.032497
0.032497
0.040606
0.052769
0.056823
0.064932
0.068986
0.073041
0.081150
0.073041
0.077095
0.064932
0.060878
0.048714
0.032497
0.028442
0.020334
0.008170
0.004116
0.000062
0.000062
0.000062
0.000062
0.000062
0.000062
0.008170
0.008170
0.016279
0.024388
0.020334
0.024388
0.024388
0.020334
0.024388
0.020334
0.016279
0.016279
0.012225
0.012225
0.012225
0.008170
0.012225
0.008170
0.004116
0.008170
0.008170
0.012225
0.016279
0.012225
0.020334
0.012225
0.016279
0.020334
0.016279
0.016279
0.012225
0.008170
0.016279
0.016279
-0.044537
-0.133734
-0.222930
-0.336453
-0.389161
-0.308073
-0.162114
-0.056700
0.000062
0.008170
0.020334
0.028442
0.028442
0.032497
0.036551
0.032497
0.036551
0.032497
0.036551
0.036551
0.032497
0.036551
0.036551
0.044660
0.048714
0.048714
0.056823
0.056823
0.064932
0.068986
0.068986
0.073041
0.068986
0.056823
0.052769
0.036551
0.032497
0.024388
0.016279
0.016279
0.008170
0.004116
0.008170
0.004116
0.008170
0.000062
0.004116
0.008170
0.012225
0.020334
0.000062
-0.085081
-0.174278
-0.275637
-0.291855
-0.194550
-0.085081
-0.012102
0.004116
0.020334
0.020334
0.028442
0.028442
0.028442
0.028442
0.020334
0.024388
0.020334
0.020334
0.028442
0.028442
0.032497
0.032497
0.032497
0.040606
0.040606
0.048714
0.048714
0.048714
0.052769
0.044660
0.048714
0.044660
0.036551
0.032497
0.024388
0.016279
0.016279
0.008170
0.008170
0.004116
0.008170
0.016279
0.012225
0.016279
0.016279
0.020334
0.024388
0.016279
0.020334
0.020334
0.016279
0.028442
0.036551
0.000062
-0.097244
-0.190495
-0.308073
-0.356725
-0.275637
-0.141842
-0.048591
0.000062
0.012225
0.016279
0.024388
0.020334
0.020334
0.024388
0.020334
0.024388
0.020334
0.020334
0.028442
0.028442
0.036551
0.040606
0.040606
0.048714
0.052769
0.060878
0.064932
0.060878
0.068986
0.060878
0.060878
0.056823
0.040606
0.036551
0.024388
0.028442
0.024388
0.016279
0.020334
0.012225
0.008170
0.008170
0.004116
0.004116
0.008170
0.000062
0.004116
0.004116
0.008170
0.016279
0.012225
0.016279
0.020334
0.032497
0.000062
-0.101298
-0.194550
-0.332399
-0.409433
-0.336453
-0.174278
-0.068863
-0.003993
0.012225
0.012225
0.020334
0.016279
0.012225
0.020334
0.016279
0.020334
0.028442
0.028442
0.036551
0.036551
0.040606
0.048714
0.048714
0.056823
0.060878
0.060878
0.073041
0.073041
0.077095
0.073041
0.064932
0.056823
0.044660
0.032497
0.024388
0.016279
0.012225
0.004116
0.008170
0.004116
0.008170
0.008170
0.012225
0.012225
0.008170
0.012225
0.024388
0.016279
0.012225
0.012225
0.016279
0.012225
0.016279
0.020334
0.016279
0.016279
0.012225
0.012225
0.024388
0.024388
-0.052646
-0.149951
-0.251311
-0.364834
-0.385106
-0.255365
-0.117516
-0.024265
0.012225
0.020334
0.020334
0.028442
0.028442
0.032497
0.032497
0.028442
0.032497
0.028442
0.036551
0.032497
0.032497
0.040606
0.044660
0.052769
0.056823
0.056823
0.064932
0.068986
0.073041
0.077095
0.064932
0.068986
0.056823
0.044660
0.044660
0.032497
0.032497
0.024388
0.016279
0.016279
0.008170
0.008170
0.012225
0.000062
0.000062
0.000062
0.000062
0.000062
0.004116
0.012225
0.016279
0.020334
0.024388
0.020334
0.032497
0.036551
-0.020210
-0.109407
-0.206713
-0.336453
-0.376997
-0.263474
-0.117516
-0.028319
0.008170
0.016279
0.020334
0.020334
0.016279
0.020334
0.020334
0.020334
0.024388
0.024388
0.028442
0.036551
0.032497
0.040606
0.040606
0.044660
0.052769
0.052769
0.060878
0.060878
0.064932
0.068986
0.060878
0.060878
0.052769
0.040606
0.032497
0.020334
0.016279
0.016279
0.004116
0.008170
0.004116
0.008170
0.012225
0.004116
0.008170
0.004116
0.004116
0.004116
0.000062
0.008170
0.004116
0.012225
0.012225
0.012225
0.020334
0.016279
0.016279
0.020334
0.016279
0.028442
0.032497
-0.044537
-0.145897
-0.243202
-0.364834
-0.393215
-0.263474
-0.125625
-0.036428
0.000062
0.012225
0.016279
0.024388
0.020334
0.020334
0.024388
0.024388
0.032497
0.024388
0.024388
0.028442
0.028442
0.032497
0.036551
0.032497
0.044660
0.044660
0.056823
0.064932
0.064932
0.068986
0.064932
0.068986
0.060878
0.044660
0.040606
0.028442
0.020334
0.020334
0.012225
0.012225
0.008170
0.004116
0.000062
0.000062
0.000062
0.000062
0.000062
0.000062
0.000062
0.004116
0.008170
0.008170
0.012225
0.012225
0.012225
0.020334
0.020334
0.020334
0.020334
0.016279
0.020334
0.016279
0.020334
0.024388
0.004116
-0.085081
-0.174278
-0.283746
-0.385106
-0.368889
-0.218876
-0.093190
-0.012102
0.012225
0.020334
0.020334
0.028442
0.024388
0.028442
0.024388
0.020334
0.024388
0.020334
0.020334
0.016279
0.020334
0.032497
0.032497
0.044660
0.048714
0.048714
0.056823
0.060878
0.068986
0.068986
0.064932
0.064932
0.052769
0.044660
0.036551
0.020334
0.020334
0.008170
0.004116
0.008170
0.004116
0.008170
0.000062
0.000062
0.004116
0.000062
0.008170
0.008170
0.012225
0.016279
0.012225
0.016279
0.016279
0.016279
0.020334
0.024388
0.028442
0.024388
0.020334
0.024388
0.016279
0.016279
0.020334
0.012225
0.020334
0.016279
0.012225
0.016279
0.016279
0.008170
0.012225
0.012225
0.024388
0.000062
-0.076972
-0.154006
-0.263474
-0.352671
-0.332399
-0.198604
-0.085081
-0.016156
0.004116
0.008170
0.012225
0.016279
0.016279
0.020334
0.020334
0.020334
0.028442
0.024388
0.024388
0.028442
0.020334
0.028442
0.028442
0.040606
0.044660
0.044660
0.052769
0.052769
0.060878
0.060878
0.052769
0.052769
0.044660
0.040606
0.036551
0.024388
0.016279
0.012225
0.008170
0.004116
0.000062
0.000062
0.000062
0.000062
0.000062
0.000062
0.004116
0.000062
0.000062
0.004116
0.012225
0.000062
-0.081026
-0.162114
-0.271583
-0.336453
-0.279692
-0.141842
-0.040482
0.000062
0.016279
0.016279
0.024388
0.016279
0.016279
0.016279
0.016279
0.024388
0.024388
0.024388
0.032497
0.028442
0.036551
0.040606
0.040606
0.052769
0.056823
0.056823
0.068986
0.068986
0.064932
0.064932
0.060878
0.052769
0.040606
0.028442
0.024388
0.016279
0.016279
0.012225
0.008170
0.012225
0.012225
0.008170
0.012225
0.008170
0.012225
0.012225
0.004116
0.016279
0.016279
-0.056700
-0.149951
-0.251311
-0.348617
-0.336453
-0.194550
-0.076972
-0.008047
0.012225
0.016279
0.016279
0.020334
0.016279
0.020334
0.020334
0.020334
0.032497
0.028442
0.036551
0.036551
0.036551
0.044660
0.048714
0.056823
0.064932
0.060878
0.068986
0.068986
0.073041
0.073041
0.064932
0.056823
0.048714
0.032497
0.032497
0.020334
0.020334
0.016279
0.012225
0.012225
0.008170
0.012225
0.012225
0.012225
0.016279
0.016279
0.012225
0.012225
0.016279
0.016279
0.020334
0.016279
0.024388
0.024388
-0.048591
-0.137788
-0.243202
-0.352671
-0.364834
-0.226985
-0.105353
-0.020210
0.012225
0.020334
0.024388
0.032497
0.028442
0.032497
0.036551
0.032497
0.036551
0.040606
0.044660
0.044660
0.048714
0.056823
0.056823
0.060878
0.073041
0.068986
0.073041
0.068986
0.068986
0.068986
0.056823
0.056823
0.048714
0.032497
0.028442
0.016279
0.012225
0.008170
0.004116
0.008170
0.004116
0.012225
0.012225
0.008170
0.012225
0.004116
0.004116
0.012225
0.012225
0.020334
0.024388
0.024388
0.028442
0.024388
0.024388
0.020334
0.012225
0.012225
0.004116
0.008170
0.008170
0.004116
0.008170
0.008170
0.008170
0.004116
0.004116
0.012225
0.012225
0.016279
-0.060754
-0.141842
-0.243202
-0.344562
-0.344562
-0.231039
-0.109407
-0.016156
0.012225
0.016279
0.020334
0.024388
0.020334
0.024388
0.020334
0.020334
0.024388
0.024388
0.028442
0.028442
0.028442
0.032497
0.032497
0.040606
0.044660
0.044660
0.052769
0.052769
0.056823
0.068986
0.060878
0.060878
0.048714
0.040606
0.024388
0.012225
0.008170
0.004116
0.000062
0.000062
0.000062
0.000062
0.000062
0.000062
0.000062
-0.003993
0.000062
0.000062
0.000062
0.004116
0.000062
0.004116
0.008170
0.008170
0.020334
0.016279
0.020334
0.016279
0.016279
0.016279
0.012225
0.012225
0.012225
0.008170
0.012225
0.008170
0.004116
0.012225
0.004116
0.004116
0.004116
0.004116
0.008170
0.012225
0.020334
-0.024265
-0.117516
-0.198604
-0.316181
-0.376997
-0.308073
-0.166169
-0.048591
0.000062
0.012225
0.020334
0.020334
0.016279
0.020334
0.020334
0.016279
0.024388
0.020334
0.020334
0.024388
0.024388
0.028442
0.028442
0.036551
0.040606
0.044660
0.056823
0.052769
0.056823
0.060878
0.056823
0.060878
0.060878
0.052769
0.048714
0.040606
0.040606
0.032497
0.020334
0.016279
0.004116
0.000062
0.000062
0.000062
0.000062
0.000062
0.000062
0.000062
0.000062
0.000062
0.000062
0.000062
0.008170
0.000062
0.008170
0.016279
0.016279
0.020334
0.024388
0.032497
0.032497
0.024388
0.028442
0.036551
0.012225
-0.097244
-0.190495
-0.295909
-0.389161
-0.368889
-0.206713
-0.089135
-0.016156
0.008170
0.016279
0.020334
0.028442
0.028442
0.032497
0.028442
0.024388
0.028442
0.028442
0.036551
0.040606
0.044660
0.052769
0.052769
0.064932
0.064932
0.064932
0.073041
0.068986
0.068986
0.064932
0.064932
0.060878
0.048714
0.040606
0.032497
0.024388
0.020334
0.012225
0.012225
0.012225
0.004116
0.008170
0.004116
0.008170
0.008170
0.008170
0.016279
0.016279
0.016279
0.016279
0.008170
0.008170
0.004116
0.016279
0.024388
-0.056700
-0.141842
-0.259420
-0.356725
-0.340508
-0.194550
-0.072918
-0.008047
0.012225
0.016279
0.024388
0.028442
0.024388
0.032497
0.032497
0.032497
0.040606
0.036551
0.028442
0.032497
0.028442
0.032497
0.028442
0.040606
0.052769
0.052769
0.056823
0.064932
0.060878
0.064932
0.060878
0.056823
0.048714
0.036551
0.024388
0.020334
0.016279
0.012225
0.008170
0.016279
0.016279
0.008170
0.008170
0.000062
0.000062
0.000062
0.000062
0.000062
0.008170
0.008170
0.008170
0.016279
0.016279
0.012225
0.016279
0.012225
0.012225
0.012225
0.012225
0.012225
0.012225
0.008170
0.012225
0.008170
0.012225
0.024388
-0.012102
-0.101298
-0.182386
-0.295909
-0.356725
-0.295909
-0.166169
-0.060754
-0.003993
0.008170
0.012225
0.016279
0.012225
0.016279
0.020334
0.016279
0.020334
0.020334
0.016279
0.024388
0.020334
0.028442
0.032497
0.036551
0.044660
0.048714
0.052769
0.056823
0.048714
0.048714
0.044660
0.040606
0.036551
0.024388
0.024388
0.016279
0.004116
0.000062
0.000062
0.000062
0.000062
-0.003993
0.000062
-0.003993
-0.003993
0.000062
0.000062
0.000062
0.000062
0.004116
0.012225
0.008170
0.008170
0.004116
0.004116
0.004116
0.004116
0.008170
0.008170
0.008170
0.012225
0.012225
0.004116
0.004116
0.004116
0.008170
0.004116
0.004116
0.004116
0.000062
0.004116
0.008170
0.004116
0.008170
0.008170
0.012225
0.020334
-0.040482
-0.125625
-0.210767
-0.328345
-0.381052
-0.299964
-0.162114
-0.056700
-0.003993
0.012225
0.012225
0.024388
0.016279
0.016279
0.024388
0.020334
0.024388
0.024388
0.024388
0.028442
0.032497
0.032497
0.032497
0.032497
0.040606
0.040606
0.048714
0.052769
0.056823
0.060878
0.056823
0.056823
0.052769
0.048714
0.044660
0.032497
0.024388
0.024388
0.016279
0.020334
0.020334
0.016279
0.020334
0.020334
0.024388
0.020334
0.012225
0.008170
0.004116
0.008170
0.008170
0.004116
0.008170
0.008170
0.008170
0.020334
0.016279
0.024388
0.020334
0.020334
0.020334
0.020334
0.020334
0.020334
0.020334
0.024388
0.024388
0.028442
0.032497
0.020334
-0.072918
-0.162114
-0.259420
-0.352671
-0.344562
-0.206713
-0.085081
-0.008047
0.016279
0.024388
0.028442
0.028442
0.024388
0.028442
0.028442
0.036551
0.036551
0.036551
0.040606
0.040606
0.044660
0.052769
0.052769
0.056823
0.052769
0.056823
0.064932
0.060878
0.064932
0.064932
0.056823
0.056823
0.044660
0.040606
0.036551
0.024388
0.020334
0.012225
0.008170
0.012225
0.004116
0.008170
0.004116
0.008170
0.016279
0.012225
0.016279
0.012225
0.008170
0.008170
0.004116
0.008170
0.008170
0.012225
0.028442
-0.008047
-0.097244
-0.182386
-0.312127
-0.376997
-0.291855
-0.141842
-0.044537
0.000062
0.016279
0.020334
0.028442
0.028442
0.024388
0.032497
0.024388
0.028442
0.024388
0.024388
0.032497
0.028442
0.036551
0.036551
0.040606
0.052769
0.056823
0.064932
0.068986
0.068986
0.073041
0.064932
0.068986
0.064932
0.052769
0.036551
0.024388
0.016279
0.012225
0.008170
0.008170
0.000062
0.000062
0.000062
0.000062
0.000062
0.000062
0.000062
0.004116
0.004116
0.008170
0.016279
0.012225
0.020334
0.024388
0.028442
-0.052646
-0.145897
-0.243202
-0.340508
-0.336453
-0.194550
-0.081026
-0.012102
0.008170
0.012225
0.016279
0.016279
0.012225
0.020334
0.016279
0.012225
0.020334
0.020334
0.024388
0.028442
0.028442
0.036551
0.036551
0.040606
0.052769
0.056823
0.068986
0.073041
0.077095
0.081150
0.073041
0.068986
0.052769
0.036551
0.020334
0.004116
0.000062
0.000062
0.000062
0.000062
0.000062
0.000062
0.000062
0.000062
0.000062
0.004116
0.004116
0.008170
0.008170
0.012225
0.016279
0.016279
0.024388
0.016279
0.012225
0.016279
0.008170
0.008170
0.004116
0.004116
0.008170
0.004116
0.008170
0.004116
0.004116
0.012225
0.020334
-0.008047
-0.105353
-0.190495
-0.312127
-0.393215
-0.336453
-0.186441
-0.072918
-0.008047
0.016279
0.020334
0.028442
0.028442
0.032497
0.036551
0.032497
0.032497
0.024388
0.020334
0.024388
0.020334
0.028442
0.028442
0.028442
0.036551
0.040606
0.052769
0.060878
0.056823
0.060878
0.060878
0.060878
0.056823
0.044660
0.040606
0.028442
0.028442
0.024388
0.016279
0.020334
0.016279
0.016279
0.016279
0.008170
0.008170
0.004116
0.000062
0.004116
0.000062
0.004116
0.004116
0.012225
0.020334
-0.024265
-0.113462
-0.198604
-0.308073
-0.332399
-0.218876
-0.101298
-0.016156
0.008170
0.024388
0.028442
0.032497
0.032497
0.024388
0.028442
0.020334
0.024388
0.020334
0.020334
0.028442
0.028442
0.032497
0.032497
0.040606
0.052769
0.048714
0.060878
0.064932
0.056823
0.060878
0.056823
0.056823
0.048714
0.036551
0.040606
0.032497
0.032497
0.024388
0.012225
0.008170
0.008170
0.004116
0.004116
0.000062
0.004116
0.000062
0.004116
0.008170
0.004116
0.012225
0.012225
0.008170
0.016279
0.016279
0.016279
-0.056700
-0.137788
-0.235093
-0.324290
-0.324290
-0.194550
-0.085081
-0.012102
0.016279
0.020334
0.016279
0.016279
0.016279
0.020334
0.020334
0.016279
0.020334
0.024388
0.032497
0.032497
0.028442
0.040606
0.036551
0.044660
0.052769
0.052769
0.064932
0.068986
0.068986
0.073041
0.068986
0.064932
0.056823
0.040606
0.024388
0.020334
0.008170
0.008170
0.000062
0.004116
0.000062
0.000062
0.000062
0.000062
0.004116
0.000062
0.000062
0.000062
0.004116
0.004116
0.008170
0.012225
0.012225
0.020334
0.028442
0.024388
0.028442
0.024388
0.020334
0.016279
0.008170
0.004116
0.004116
0.012225
0.000062
-0.076972
-0.149951
-0.255365
-0.348617
-0.336453
-0.194550
-0.081026
-0.016156
0.004116
0.012225
0.012225
0.016279
0.012225
0.020334
0.020334
0.028442
0.032497
0.028442
0.032497
0.024388
0.024388
0.028442
0.024388
0.032497
0.032497
0.040606
0.048714
0.044660
0.052769
0.044660
0.048714
0.044660
0.036551
0.028442
0.020334
0.016279
0.012225
0.004116
0.012225
0.008170
0.012225
0.008170
0.008170
0.000062
0.000062
0.000062
0.000062
0.000062
0.000062
0.000062
0.000062
0.008170
0.008170
0.012225
0.020334
0.016279
0.020334
0.024388
0.028442
-0.024265
-0.117516
-0.202658
-0.312127
-0.336453
-0.214821
-0.093190
-0.016156
0.008170
0.016279
0.016279
0.016279
0.012225
0.016279
0.020334
0.016279
0.024388
0.024388
0.024388
0.028442
0.028442
0.036551
0.044660
0.040606
0.048714
0.052769
0.060878
0.064932
0.064932
0.073041
0.064932
0.064932
0.060878
0.044660
0.028442
0.016279
0.004116
0.008170
0.000062
0.004116
0.000062
0.000062
0.004116
0.000062
0.004116
0.004116
0.000062
0.004116
0.004116
0.004116
0.012225
0.012225
0.024388
0.024388
0.028442
0.032497
0.028442
0.028442
0.024388
0.016279
0.016279
0.016279
0.012225
0.012225
0.008170
0.012225
0.008170
0.008170
0.008170
0.004116
0.008170
0.004116
0.004116
0.004116
0.000062
0.004116
0.016279
0.020334
-0.052646
-0.133734
-0.231039
-0.344562
-0.376997
-0.259420
-0.125625
-0.028319
0.008170
0.016279
0.024388
0.028442
0.020334
0.024388
0.024388
0.028442
0.028442
0.024388
0.028442
0.024388
0.024388
0.028442
0.032497
0.040606
0.040606
0.052769
0.068986
0.068986
0.073041
0.068986
0.060878
0.056823
0.044660
0.044660
0.032497
0.024388
0.016279
0.012225
0.008170
0.000062
0.004116
0.008170
0.000062
0.004116
0.000062
0.000062
0.008170
0.004116
0.008170
0.008170
0.016279
0.024388
0.028442
0.024388
0.016279
0.012225
0.016279
0.016279
-0.060754
-0.149951
-0.255365
-0.340508
-0.316181
-0.182386
-0.068863
-0.012102
0.008170
0.012225
0.012225
0.016279
0.016279
0.024388
0.024388
0.028442
0.032497
0.028442
0.032497
0.028442
0.028442
0.032497
0.028442
0.036551
0.040606
0.040606
0.052769
0.056823
0.056823
0.056823
0.052769
0.052769
0.044660
0.032497
0.028442
0.020334
0.016279
0.012225
0.008170
0.012225
0.008170
0.012225
0.016279
0.012225
0.016279
0.016279
0.008170
0.008170
0.000062
0.008170
0.012225
0.008170
0.016279
0.016279
0.020334
0.020334
0.016279
0.020334
0.016279
0.024388
-0.012102
-0.105353
-0.186441
-0.295909
-0.360780
-0.291855
-0.149951
-0.044537
0.000062
0.020334
0.020334
0.028442
0.024388
0.024388
0.024388
0.020334
0.024388
0.020334
0.024388
0.028442
0.028442
0.036551
0.036551
0.040606
0.044660
0.048714
0.052769
0.060878
0.060878
0.068986
0.064932
0.060878
0.060878
0.052769
0.044660
0.032497
0.016279
0.012225
0.004116
0.004116
0.000062
0.000062
0.000062
0.000062
0.000062
0.000062
0.000062
0.000062
0.000062
0.004116
0.008170
0.008170
0.016279
0.024388
0.016279
-0.060754
-0.141842
-0.263474
-0.348617
-0.308073
-0.158060
-0.056700
-0.003993
0.008170
0.012225
0.020334
0.020334
0.016279
0.020334
0.016279
0.020334
0.024388
0.028442
0.036551
0.032497
0.040606
0.048714
0.052769
0.060878
0.073041
0.081150
0.089258
0.081150
0.077095
0.064932
0.056823
0.052769
0.040606
0.024388
0.020334
0.008170
0.008170
0.004116
0.000062
0.004116
0.000062
0.008170
0.008170
0.004116
0.012225
0.012225
0.020334
0.020334
0.020334
0.028442
0.028442
0.036551
-0.008047
-0.097244
-0.190495
-0.308073
-0.344562
-0.239148
-0.109407
-0.028319
0.004116
0.020334
0.020334
0.028442
0.028442
0.032497
0.036551
0.036551
0.036551
0.032497
0.036551
0.040606
0.040606
0.044660
0.044660
0.052769
0.060878
0.064932
0.073041
0.073041
0.068986
0.068986
0.060878
0.052769
0.040606
0.028442
0.024388
0.016279
0.012225
0.012225
0.012225
0.008170
0.008170
0.008170
0.008170
0.008170
0.012225
0.012225
0.008170
0.012225
0.016279
0.028442
0.040606
0.020334
-0.064809
-0.158060
-0.275637
-0.352671
-0.299964
-0.149951
-0.052646
-0.003993
0.008170
0.016279
0.020334
0.020334
0.016279
0.020334
0.020334
0.028442
0.028442
0.028442
0.036551
0.032497
0.036551
0.044660
0.044660
0.052769
0.060878
0.064932
0.073041
0.068986
0.068986
0.064932
0.048714
0.040606
0.020334
0.020334
0.012225
0.004116
0.008170
0.004116
0.008170
0.012225
0.008170
0.016279
0.012225
0.016279
0.016279
0.012225
0.016279
0.020334
0.028442
0.032497
-0.048591
-0.141842
-0.259420
-0.348617
-0.312127
-0.174278
-0.072918
-0.008047
0.004116
0.008170
0.012225
0.016279
0.012225
0.020334
0.024388
0.020334
0.028442
0.024388
0.032497
0.036551
0.036551
0.044660
0.044660
0.052769
0.064932
0.060878
0.060878
0.052769
0.052769
0.052769
0.040606
0.036551
0.028442
0.020334
0.016279
0.008170
0.012225
0.008170
0.004116
0.008170
0.004116
0.000062
0.008170
0.004116
0.008170
0.012225
0.016279
0.016279
0.016279
0.020334
0.020334
0.012225
0.012225
0.008170
0.004116
0.004116
0.004116
0.020334
-0.012102
-0.105353
-0.190495
-0.299964
-0.368889
-0.312127
-0.174278
-0.068863
-0.008047
0.008170
0.016279
0.024388
0.024388
0.024388
0.028442
0.024388
0.024388
0.032497
0.024388
0.028442
0.020334
0.020334
0.028442
0.028442
0.036551
0.036551
0.036551
0.048714
0.048714
0.052769
0.052769
0.048714
0.052769
0.036551
0.032497
0.032497
0.024388
0.024388
0.012225
0.012225
0.012225
0.008170
0.012225
0.012225
0.008170
0.008170
0.004116
0.008170
0.012225
0.016279
0.024388
0.020334
0.024388
0.024388
0.020334
0.000062
-0.085081
-0.166169
-0.279692
-0.352671
-0.304018
-0.158060
-0.056700
-0.003993
0.016279
0.016279
0.020334
0.028442
0.024388
0.028442
0.028442
0.032497
0.032497
0.032497
0.036551
0.040606
0.048714
0.052769
0.056823
0.068986
0.068986
0.073041
0.077095
0.068986
0.068986
0.064932
0.052769
0.044660
0.032497
0.024388
0.016279
0.012225
0.020334
0.016279
0.020334
0.012225
0.012225
0.012225
0.012225
0.016279
0.016279
0.016279
0.024388
0.028442
0.036551
0.044660
0.044660
-0.036428
-0.129679
-0.231039
-0.328345
-0.324290
-0.190495
-0.081026
-0.016156
0.004116
0.012225
0.016279
0.020334
0.016279
0.020334
0.024388
0.020334
0.028442
0.024388
0.036551
0.036551
0.040606
0.052769
0.060878
0.064932
0.068986
0.068986
0.068986
0.060878
0.068986
0.060878
0.048714
0.044660
0.036551
0.028442
0.024388
0.016279
0.016279
0.004116
0.004116
0.012225
0.004116
0.008170
0.008170
0.008170
0.016279
0.024388
0.032497
-0.032374
-0.113462
-0.206713
-0.304018
-0.312127
-0.194550
-0.085081
-0.016156
0.004116
0.012225
0.016279
0.020334
0.016279
0.028442
0.020334
0.012225
0.020334
0.028442
0.024388
0.036551
0.036551
0.044660
0.048714
0.056823
0.068986
0.068986
0.068986
0.068986
0.064932
0.056823
0.048714
0.036551
0.024388
0.016279
0.012225
0.008170
0.008170
0.004116
0.004116
0.008170
0.004116
0.008170
0.004116
0.004116
0.008170
0.008170
0.016279
0.024388
0.024388
0.028442
0.020334
0.016279
0.020334
0.012225
0.016279
0.016279
0.008170
0.020334
-0.020210
-0.113462
-0.190495
-0.304018
-0.352671
-0.271583
-0.141842
-0.040482
0.000062
0.012225
0.008170
0.016279
0.016279
0.016279
0.020334
0.024388
0.028442
0.028442
0.024388
0.028442
0.020334
0.028442
0.028442
0.032497
0.032497
0.036551
0.044660
0.052769
0.052769
0.064932
0.052769
0.052769
0.048714
0.036551
0.032497
0.020334
0.016279
0.016279
0.012225
0.016279
0.012225
0.008170
0.008170
0.000062
0.000062
0.004116
0.000062
0.000062
0.000062
0.004116
0.012225
0.008170
0.020334
0.016279
0.012225
0.016279
0.016279
0.012225
0.016279
0.012225
0.008170
0.012225
0.012225
0.016279
0.016279
0.008170
0.012225
0.008170
0.008170
0.004116
0.008170
0.020334
-0.036428
-0.113462
-0.206713
-0.328345
-0.368889
-0.267529
-0.137788
-0.044537
0.000062
0.012225
0.012225
0.020334
0.016279
0.020334
0.020334
0.020334
0.028442
0.020334
0.020334
0.020334
0.020334
0.024388
0.024388
0.024388
0.032497
0.036551
0.048714
0.052769
0.052769
0.060878
0.056823
0.048714
0.044660
0.032497
0.032497
0.024388
0.012225
0.012225
0.000062
0.000062
0.000062
0.000062
0.004116
0.008170
0.008170
0.012225
0.004116
0.004116
0.004116
0.000062
0.000062
0.000062
0.000062
0.008170
0.008170
0.012225
0.012225
0.008170
0.012225
0.008170
0.012225
0.008170
0.004116
0.004116
0.000062
0.000062
0.008170
0.008170
0.012225
0.008170
0.008170
0.012225
0.004116
0.008170
0.008170
0.008170
0.012225
0.004116
0.004116
0.000062
0.000062
0.004116
0.000062
0.000062
0.000062
0.000062
0.004116
0.004116
0.000062
-0.072918
-0.141842
-0.239148
-0.348617
-0.364834
-0.243202
-0.109407
-0.024265
0.004116
0.008170
0.016279
0.020334
0.016279
0.020334
0.016279
0.016279
0.020334
0.016279
0.020334
0.020334
0.016279
0.024388
0.020334
0.028442
0.036551
0.040606
0.048714
0.056823
0.060878
0.068986
0.064932
0.064932
0.056823
0.040606
0.040606
0.028442
0.020334
0.012225
0.004116
0.000062
0.004116
0.000062
0.000062
0.000062
0.000062
0.000062
0.000062
0.000062
0.004116
0.012225
0.012225
0.016279
0.016279
0.012225
0.012225
0.012225
0.020334
0.016279
0.020334
0.020334
0.016279
0.024388
0.016279
0.008170
0.016279
0.012225
0.004116
0.008170
0.004116
0.008170
0.020334
0.028442
-0.028319
-0.117516
-0.202658
-0.320236
-0.368889
-0.275637
-0.137788
-0.036428
0.000062
0.008170
0.016279
0.024388
0.012225
0.012225
0.020334
0.020334
0.024388
0.020334
0.024388
0.032497
0.028442
0.032497
0.036551
0.036551
0.052769
0.052769
0.064932
0.068986
0.068986
0.068986
0.056823
0.060878
0.052769
0.048714
0.036551
0.020334
0.020334
0.012225
0.012225
0.008170
0.004116
0.012225
0.008170
0.004116
0.008170
0.004116
0.000062
0.008170
0.012225
0.016279
0.020334
0.020334
0.032497
0.028442
0.024388
0.016279
0.012225
0.016279
0.012225
0.016279
0.032497
-0.012102
-0.113462
-0.202658
-0.324290
-0.397269
-0.340508
-0.178332
-0.064809
0.000062
0.012225
0.024388
0.024388
0.028442
0.032497
0.044660
0.044660
0.044660
0.040606
0.044660
0.040606
0.032497
0.040606
0.044660
0.048714
0.056823
0.052769
0.064932
0.060878
0.064932
0.077095
0.073041
0.073041
0.060878
0.052769
0.040606
0.028442
0.024388
0.024388
0.016279
0.020334
0.020334
0.008170
0.000062
0.004116
0.000062
0.000062
0.000062
0.004116
0.004116
0.004116
0.008170
0.012225
0.016279
0.012225
0.016279
0.012225
0.016279
0.012225
0.004116
0.016279
0.020334
0.020334
0.020334
0.020334
0.020334
0.016279
0.012225
0.008170
0.004116
0.008170
0.008170
0.000062
0.008170
0.008170
0.012225
-0.028319
-0.125625
-0.214821
-0.340508
-0.409433
-0.340508
-0.190495
-0.076972
-0.012102
0.004116
0.020334
0.028442
0.028442
0.032497
0.036551
0.036551
0.024388
0.028442
0.020334
0.024388
0.024388
0.020334
0.032497
0.028442
0.036551
0.036551
0.044660
0.052769
0.056823
0.060878
0.056823
0.060878
0.052769
0.048714
0.044660
0.036551
0.032497
0.024388
0.024388
0.024388
0.016279
0.012225
0.000062
0.000062
0.000062
0.000062
0.000062
0.000062
0.000062
0.000062
0.000062
0.000062
0.004116
0.008170
0.016279
0.016279
0.012225
0.016279
0.020334
0.032497
0.028442
0.024388
0.020334
0.012225
0.012225
0.012225
0.008170
0.012225
0.012225
0.012225
0.020334
-0.003993
-0.101298
-0.182386
-0.299964
-0.381052
-0.336453
-0.194550
-0.076972
-0.003993
0.012225
0.020334
0.024388
0.024388
0.024388
0.028442
0.024388
0.032497
0.032497
0.028442
0.028442
0.024388
0.024388
0.028442
0.028442
0.036551
0.044660
0.044660
0.056823
0.056823
0.068986
0.068986
0.060878
0.060878
0.052769
0.044660
0.032497
0.024388
0.024388
0.016279
0.016279
0.020334
0.020334
0.024388
0.020334
0.012225
0.012225
0.000062
0.000062
0.004116
0.000062
0.008170
0.004116
0.012225
0.020334
0.016279
0.020334
0.020334
0.016279
0.020334
0.012225
0.016279
0.020334
0.016279
0.024388
0.020334
0.020334
0.024388
0.016279
-0.076972
-0.166169
-0.263474
-0.364834
-0.372943
-0.239148
-0.109407
-0.024265
0.008170
0.016279
0.024388
0.028442
0.024388
0.032497
0.032497
0.028442
0.032497
0.028442
0.032497
0.036551
0.032497
0.044660
0.044660
0.044660
0.044660
0.048714
0.056823
0.056823
0.060878
0.068986
0.064932
0.064932
0.060878
0.048714
0.040606
0.032497
0.032497
0.024388
0.016279
0.016279
0.012225
0.008170
0.008170
0.004116
0.004116
0.004116
0.008170
0.012225
0.008170
0.016279
0.000062
0.004116
0.008170
0.004116
0.004116
0.000062
0.004116
0.012225
0.008170
0.012225
0.016279
0.008170
0.012225
0.008170
0.008170
0.016279
0.000062
-0.101298
-0.182386
-0.299964
-0.385106
-0.352671
-0.198604
-0.076972
-0.012102
0.008170
0.012225
0.012225
0.012225
0.012225
0.012225
0.012225
0.016279
0.016279
0.016279
0.028442
0.024388
0.024388
0.032497
0.032497
0.040606
0.040606
0.044660
0.060878
0.060878
0.068986
0.064932
0.056823
0.056823
0.048714
0.044660
0.040606
0.028442
0.028442
0.016279
0.004116
0.000062
0.000062
0.000062
0.000062
0.000062
0.000062
0.000062
0.000062
0.000062
0.000062
0.000062
0.008170
0.008170
0.000062
0.008170
0.012225
0.012225
0.016279
0.020334
0.020334
0.036551
0.020334
0.028442
0.016279
0.012225
0.008170
0.012225
0.012225
0.012225
0.012225
0.008170
0.012225
0.024388
-0.028319
-0.121570
-0.210767
-0.336453
-0.401324
-0.332399
-0.174278
-0.064809
-0.008047
0.004116
0.016279
0.028442
0.028442
0.036551
0.036551
0.028442
0.032497
0.024388
0.024388
0.028442
0.028442
0.032497
0.032497
0.032497
0.048714
0.044660
0.044660
0.052769
0.060878
0.060878
0.060878
0.060878
0.052769
0.048714
0.044660
0.028442
0.032497
0.024388
0.020334
0.016279
0.004116
0.000062
0.000062
0.000062
0.000062
0.000062
0.000062
0.000062
-0.072918
-0.154006
-0.259420
-0.320236
-0.275637
-0.145897
-0.044537
0.000062
0.016279
0.016279
0.024388
0.028442
0.024388
0.028442
0.024388
0.024388
0.024388
0.016279
0.024388
0.020334
0.024388
0.032497
0.032497
0.044660
0.048714
0.048714
0.056823
0.056823
0.060878
0.060878
0.056823
0.056823
0.048714
0.040606
0.028442
0.024388
0.020334
0.016279
0.016279
0.024388
0.016279
0.016279
0.016279
0.008170
0.012225
0.004116
0.008170
0.012225
0.008170
0.012225
0.012225
0.012225
0.016279
0.016279
0.020334
0.020334
0.020334
0.020334
-0.036428
-0.121570
-0.214821
-0.299964
-0.291855
-0.190495
-0.081026
-0.003993
0.012225
0.016279
0.020334
0.024388
0.020334
0.020334
0.020334
0.016279
0.024388
0.020334
0.024388
0.028442
0.024388
0.032497
0.036551
0.044660
0.048714
0.048714
0.056823
0.056823
0.060878
0.060878
0.056823
0.056823
0.052769
0.044660
0.036551
0.024388
0.020334
0.012225
0.000062
0.004116
0.000062
0.000062
0.000062
0.000062
0.008170
0.004116
0.004116
0.016279
0.012225
0.016279
0.012225
0.024388
-0.008047
-0.081026
-0.154006
-0.287801
-0.348617
-0.275637
-0.133734
-0.044537
0.000062
0.012225
0.012225
0.020334
0.016279
0.020334
0.024388
0.024388
0.028442
0.028442
0.036551
0.040606
0.040606
0.048714
0.048714
0.056823
0.060878
0.068986
0.081150
0.081150
0.085204
0.081150
0.073041
0.064932
0.044660
0.036551
0.024388
0.012225
0.008170
0.000062
0.000062
0.000062
0.000062
0.004116
0.004116
0.000062
0.004116
0.012225
0.004116
-0.072918
-0.158060
-0.259420
-0.320236
-0.275637
-0.137788
-0.040482
0.000062
0.016279
0.012225
0.016279
0.016279
0.016279
0.020334
0.016279
0.020334
0.024388
0.024388
0.028442
0.028442
0.036551
0.040606
0.048714
0.056823
0.060878
0.073041
0.073041
0.081150
0.077095
0.060878
0.056823
0.040606
0.024388
0.020334
0.008170
0.008170
0.004116
0.000062
0.000062
0.000062
0.004116
0.000062
0.000062
0.008170
0.008170
0.016279
0.024388
0.020334
-0.064809
-0.149951
-0.267529
-0.340508
-0.291855
-0.149951
-0.052646
0.000062
0.012225
0.012225
0.020334
0.024388
0.020334
0.028442
0.024388
0.032497
0.036551
0.032497
0.040606
0.036551
0.040606
0.052769
0.052769
0.064932
0.064932
0.068986
0.077095
0.073041
0.077095
0.077095
0.068986
0.056823
0.036551
0.028442
0.016279
0.008170
0.008170
0.004116
0.008170
0.012225
0.004116
0.012225
0.008170
0.016279
0.016279
0.012225
0.012225
0.016279
0.020334
0.016279
0.020334
0.028442
0.024388
0.028442
0.024388
0.028442
0.028442
0.024388
0.024388
0.020334
0.020334
0.016279
0.016279
0.012225
0.012225
0.012225
0.008170
0.012225
0.024388
0.012225
-0.068863
-0.145897
-0.259420
-0.352671
-0.340508
-0.210767
-0.089135
-0.012102
0.016279
0.024388
0.032497
0.040606
0.036551
0.036551
0.024388
0.024388
0.024388
0.016279
0.020334
0.024388
0.024388
0.028442
0.028442
0.036551
0.040606
0.044660
0.052769
0.052769
0.052769
0.056823
0.052769
0.056823
0.052769
0.044660
0.040606
0.032497
0.032497
0.024388
0.016279
0.008170
0.004116
0.000062
0.000062
0.000062
0.000062
0.000062
0.000062
-0.036428
-0.105353
-0.194550
-0.267529
-0.235093
-0.141842
-0.048591
0.000062
0.012225
0.016279
0.020334
0.020334
0.016279
0.020334
0.020334
0.028442
0.024388
0.020334
0.024388
0.024388
0.024388
0.024388
0.020334
0.028442
0.028442
0.032497
0.036551
0.032497
0.032497
0.028442
0.028442
0.028442
0.020334
0.020334
0.016279
0.012225
0.008170
0.004116
0.012225
0.012225
0.012225
0.016279
0.012225
0.016279
0.012225
0.008170
0.008170
0.004116
-0.060754
-0.145897
-0.247257
-0.324290
-0.304018
-0.178332
-0.072918
-0.016156
0.000062
0.004116
0.008170
0.016279
0.016279
0.020334
0.020334
0.020334
0.032497
0.028442
0.036551
0.036551
0.036551
0.044660
0.036551
0.040606
0.044660
0.044660
0.044660
0.044660
0.040606
0.040606
0.032497
0.032497
0.028442
0.020334
0.020334
0.008170
0.008170
0.008170
0.004116
0.008170
0.012225
0.012225
0.016279
0.012225
0.012225
0.012225
0.004116
0.008170
0.000062
0.004116
0.000062
0.000062
0.008170
0.004116
0.008170
0.004116
0.004116
0.008170
0.004116
0.012225
0.012225
0.008170
0.012225
0.004116
0.008170
0.016279
0.024388
0.028442
-0.044537
-0.121570
-0.226985
-0.324290
-0.344562
-0.235093
-0.113462
-0.028319
0.004116
0.012225
0.016279
0.020334
0.016279
0.020334
0.024388
0.024388
0.028442
0.028442
0.024388
0.032497
0.028442
0.032497
0.032497
0.036551
0.048714
0.048714
0.056823
0.064932
0.064932
0.060878
0.056823
0.044660
0.036551
0.032497
0.020334
0.012225
0.008170
0.004116
0.004116
0.000062
0.000062
0.000062
0.000062
0.000062
0.000062
0.000062
0.000062
0.000062
0.004116
0.012225
0.016279
0.016279
0.012225
0.012225
0.020334
0.020334
0.020334
0.020334
0.016279
0.024388
0.028442
0.008170
-0.076972
-0.162114
-0.275637
-0.356725
-0.320236
-0.174278
-0.064809
-0.003993
0.012225
0.016279
0.024388
0.028442
0.028442
0.032497
0.028442
0.028442
0.024388
0.024388
0.028442
0.024388
0.032497
0.028442
0.032497
0.040606
0.044660
0.052769
0.052769
0.052769
0.056823
0.052769
0.056823
0.048714
0.036551
0.036551
0.024388
0.020334
0.016279
0.008170
0.012225
0.008170
0.012225
0.012225
0.008170
0.012225
0.008170
0.012225
0.012225
0.000062
0.004116
0.000062
0.000062
0.004116
0.004116
0.004116
0.008170
0.004116
0.008170
0.016279
0.012225
0.008170
0.012225
0.008170
0.012225
0.012225
0.008170
0.012225
0.016279
0.016279
0.012225
0.016279
0.012225
0.008170
0.008170
0.004116
0.004116
0.008170
0.004116
0.008170
0.004116
0.000062
0.004116
0.004116
0.020334
-0.003993
-0.097244
-0.170223
-0.287801
-0.381052
-0.356725
-0.206713
-0.081026
-0.008047
0.016279
0.020334
0.028442
0.020334
0.024388
0.024388
0.024388
0.024388
0.028442
0.028442
0.032497
0.032497
0.032497
0.032497
0.036551
0.044660
0.040606
0.044660
0.052769
0.052769
0.060878
0.060878
0.056823
0.064932
0.060878
0.060878
0.048714
0.036551
0.024388
0.012225
0.004116
0.000062
0.000062
0.000062
0.000062
-0.003993
0.000062
0.000062
0.000062
0.000062
0.000062
0.008170
0.004116
0.012225
0.012225
0.012225
0.024388
0.020334
0.024388
0.020334
0.024388
0.028442
-0.024265
-0.113462
-0.202658
-0.308073
-0.328345
-0.218876
-0.101298
-0.024265
0.004116
0.012225
0.012225
0.016279
0.012225
0.012225
0.012225
0.012225
0.024388
0.020334
0.024388
0.032497
0.028442
0.028442
0.028442
0.032497
0.036551
0.040606
0.044660
0.048714
0.052769
0.056823
0.048714
0.044660
0.044660
0.032497
0.028442
0.016279
0.012225
0.008170
0.000062
0.004116
0.004116
0.004116
0.012225
0.008170
0.012225
0.012225
0.004116
0.004116
0.000062
0.000062
0.000062
0.004116
0.016279
-0.003993
-0.089135
-0.166169
-0.283746
-0.352671
-0.308073
-0.162114
-0.060754
-0.003993
0.008170
0.012225
0.016279
0.020334
0.024388
0.028442
0.028442
0.028442
0.028442
0.020334
0.024388
0.028442
0.028442
0.036551
0.036551
0.040606
0.052769
0.056823
0.060878
0.064932
0.060878
0.064932
0.056823
0.056823
0.044660
0.036551
0.036551
0.024388
0.024388
0.020334
0.012225
0.012225
0.008170
0.008170
0.004116
0.008170
0.008170
0.004116
0.012225
0.012225
0.012225
0.020334
0.020334
0.020334
0.020334
0.020334
0.024388
0.020334
0.020334
0.024388
0.020334
0.032497
-0.020210
-0.113462
-0.202658
-0.312127
-0.356725
-0.271583
-0.141842
-0.040482
0.000062
0.016279
0.020334
0.024388
0.024388
0.024388
0.032497
0.028442
0.032497
0.032497
0.032497
0.040606
0.040606
0.044660
0.044660
0.044660
0.044660
0.052769
0.056823
0.060878
0.056823
0.060878
0.056823
0.056823
0.048714
0.036551
0.032497
0.020334
0.020334
0.016279
0.012225
0.012225
0.008170
0.008170
0.012225
0.012225
0.016279
0.016279
0.012225
0.012225
0.004116
0.008170
0.008170
0.004116
0.008170
0.008170
0.016279
0.016279
0.012225
0.016279
0.012225
0.012225
0.016279
0.012225
0.016279
0.020334
0.024388
-0.028319
-0.121570
-0.206713
-0.324290
-0.364834
-0.275637
-0.133734
-0.040482
0.004116
0.012225
0.016279
0.020334
0.020334
0.020334
0.020334
0.020334
0.024388
0.024388
0.028442
0.028442
0.028442
0.036551
0.036551
0.044660
0.048714
0.060878
0.068986
0.068986
0.073041
0.081150
0.073041
0.068986
0.056823
0.040606
0.028442
0.016279
0.008170
0.000062
0.000062
0.004116
0.000062
0.000062
0.000062
0.000062
0.000062
0.000062
0.004116
0.004116
0.004116
0.016279
0.016279
0.024388
0.024388
0.028442
0.028442
0.020334
0.020334
0.016279
0.012225
0.012225
0.008170
0.016279
0.016279
-0.076972
-0.162114
-0.259420
-0.368889
-0.376997
-0.239148
-0.109407
-0.024265
0.008170
0.020334
0.024388
0.032497
0.032497
0.036551
0.036551
0.036551
0.036551
0.032497
0.032497
0.032497
0.028442
0.032497
0.028442
0.036551
0.048714
0.052769
0.060878
0.064932
0.064932
0.068986
0.064932
0.060878
0.048714
0.036551
0.028442
0.024388
0.020334
0.020334
0.012225
0.012225
0.012225
0.000062
0.000062
0.000062
0.000062
0.000062
0.000062
0.000062
0.000062
0.004116
0.004116
0.008170
0.020334
0.028442
-0.003993
-0.097244
-0.186441
-0.308073
-0.364834
-0.279692
-0.137788
-0.040482
0.004116
0.020334
0.024388
0.028442
0.028442
0.028442
0.024388
0.020334
0.020334
0.016279
0.016279
0.020334
0.020334
0.028442
0.028442
0.036551
0.048714
0.048714
0.060878
0.064932
0.060878
0.064932
0.056823
0.052769
0.048714
0.036551
0.032497
0.024388
0.024388
0.020334
0.012225
0.012225
0.008170
0.008170
0.000062
0.000062
0.000062
0.000062
0.000062
0.004116
0.004116
0.008170
0.008170
0.008170
0.016279
0.012225
0.016279
0.016279
0.012225
0.016279
0.012225
0.024388
0.028442
-0.028319
-0.117516
-0.210767
-0.316181
-0.340508
-0.243202
-0.125625
-0.032374
0.004116
0.012225
0.016279
0.024388
0.020334
0.028442
0.024388
0.020334
0.020334
0.020334
0.020334
0.024388
0.024388
0.036551
0.036551
0.040606
0.052769
0.052769
0.060878
0.064932
0.068986
0.073041
0.064932
0.064932
0.044660
0.028442
0.028442
0.016279
0.008170
0.008170
0.000062
0.004116
0.004116
0.004116
0.004116
0.004116
0.004116
0.008170
0.008170
0.016279
-0.012102
-0.093190
-0.166169
-0.267529
-0.308073
-0.235093
-0.105353
-0.024265
0.004116
0.016279
0.016279
0.020334
0.016279
0.016279
0.020334
0.020334
0.020334
0.028442
0.024388
0.032497
0.036551
0.036551
0.048714
0.048714
0.060878
0.060878
0.068986
0.073041
0.068986
0.073041
0.068986
0.052769
0.040606
0.024388
0.012225
0.004116
0.000062
0.000062
0.000062
0.000062
0.000062
0.000062
0.000062
0.000062
0.004116
0.000062
0.000062
0.004116
0.004116
0.012225
0.012225
0.020334
0.020334
0.016279
0.016279
0.012225
0.016279
0.012225
0.004116
0.008170
0.004116
0.004116
0.008170
0.008170
0.004116
0.008170
0.004116
0.008170
0.008170
0.004116
0.008170
0.008170
0.016279
0.000062
-0.085081
-0.158060
-0.263474
-0.348617
-0.332399
-0.206713
-0.089135
-0.016156
0.008170
0.012225
0.020334
0.016279
0.016279
0.024388
0.020334
0.020334
0.024388
0.020334
0.024388
0.024388
0.028442
0.036551
0.036551
0.044660
0.048714
0.048714
0.056823
0.052769
0.060878
0.060878
0.056823
0.060878
0.056823
0.052769
0.048714
0.036551
0.024388
0.016279
0.000062
0.004116
0.000062
0.000062
0.000062
0.000062
0.000062
0.000062
0.000062
0.000062
0.000062
0.004116
0.004116
0.008170
0.012225
0.020334
0.024388
0.028442
0.032497
0.032497
0.032497
0.032497
0.028442
0.028442
0.020334
0.020334
0.016279
0.012225
0.016279
0.012225
0.012225
0.016279
0.016279
0.024388
-0.036428
-0.129679
-0.218876
-0.344562
-0.393215
-0.291855
-0.133734
-0.036428
0.008170
0.024388
0.024388
0.028442
0.028442
0.028442
0.020334
0.016279
0.020334
0.020334
0.020334
0.028442
0.028442
0.036551
0.036551
0.036551
0.048714
0.048714
0.060878
0.064932
0.064932
0.073041
0.073041
0.073041
0.060878
0.044660
0.032497
0.020334
0.012225
0.004116
0.000062
0.000062
0.000062
0.000062
0.000062
0.000062
0.000062
0.000062
0.000062
0.004116
0.000062
0.004116
0.008170
0.012225
0.020334
0.028442
-0.032374
-0.121570
-0.218876
-0.332399
-0.336453
-0.210767
-0.093190
-0.024265
0.004116
0.016279
0.016279
0.020334
0.016279
0.016279
0.024388
0.020334
0.028442
0.028442
0.036551
0.036551
0.036551
0.044660
0.044660
0.052769
0.064932
0.064932
0.068986
0.064932
0.052769
0.056823
0.044660
0.040606
0.028442
0.016279
0.016279
0.008170
0.008170
0.008170
0.004116
0.004116
0.004116
0.004116
0.008170
0.004116
0.008170
0.008170
0.012225
0.020334
0.016279
0.020334
0.020334
0.028442
0.028442
0.020334
0.020334
0.008170
0.012225
0.004116
0.004116
0.004116
0.008170
0.008170
0.004116
-0.072918
-0.149951
-0.247257
-0.336453
-0.336453
-0.218876
-0.105353
-0.024265
0.004116
0.016279
0.016279
0.020334
0.020334
0.024388
0.032497
0.028442
0.032497
0.028442
0.020334
0.020334
0.016279
0.020334
0.020334
0.020334
0.032497
0.032497
0.036551
0.044660
0.044660
0.044660
0.040606
0.040606
0.036551
0.028442
0.024388
0.016279
0.020334
0.020334
0.016279
0.020334
0.016279
0.008170
0.008170
0.000062
0.000062
0.000062
0.000062
0.000062
0.000062
0.000062
0.008170
0.004116
0.012225
0.012225
0.008170
0.016279
0.016279
0.024388
-0.032374
-0.117516
-0.202658
-0.316181
-0.348617
-0.235093
-0.109407
-0.024265
0.008170
0.020334
0.016279
0.020334
0.012225
0.012225
0.016279
0.012225
0.016279
0.016279
0.024388
0.028442
0.028442
0.036551
0.032497
0.036551
0.044660
0.044660
0.060878
0.073041
0.068986
0.077095
0.073041
0.064932
0.060878
0.048714
0.040606
0.028442
0.016279
0.008170
0.000062
0.000062
-0.003993
0.000062
0.000062
0.000062
0.004116
0.004116
0.008170
0.012225
0.008170
0.016279
0.016279
0.020334
0.024388
0.024388
0.032497
0.028442
0.032497
0.032497
0.024388
0.028442
0.020334
0.012225
0.016279
0.012225
0.004116
0.000062
0.000062
0.004116
0.004116
0.008170
0.008170
0.008170
0.012225
0.016279
0.016279
0.016279
0.020334
0.016279
-0.072918
-0.154006
-0.247257
-0.356725
-0.372943
-0.243202
-0.105353
-0.020210
0.008170
0.024388
0.024388
0.024388
0.020334
0.020334
0.020334
0.020334
0.024388
0.024388
0.028442
0.032497
0.028442
0.040606
0.040606
0.044660
0.052769
0.052769
0.060878
0.068986
0.073041
0.073041
0.073041
0.073041
0.068986
0.064932
0.048714
0.032497
0.028442
0.020334
0.004116
0.008170
0.000062
0.004116
0.000062
0.000062
0.000062
0.000062
0.008170
0.004116
-0.060754
-0.133734
-0.231039
-0.275637
-0.210767
-0.101298
-0.008047
0.016279
0.020334
0.016279
0.020334
0.020334
0.012225
0.020334
0.016279
0.020334
0.024388
0.020334
0.024388
0.024388
0.032497
0.032497
0.028442
0.040606
0.036551
0.040606
0.048714
0.044660
0.048714
0.048714
0.044660
0.040606
0.028442
0.024388
0.012225
0.008170
0.004116
0.000062
0.000062
0.000062
0.000062
0.000062
0.000062
0.008170
0.008170
0.008170
0.012225
0.008170
0.008170
0.016279
0.012225
0.016279
0.012225
0.016279
0.020334
0.016279
0.020334
0.020334
0.016279
0.020334
0.012225
0.016279
0.008170
0.004116
0.004116
0.000062
0.000062
0.000062
0.000062
0.000062
0.000062
0.000062
0.000062
0.000062
0.000062
0.000062
0.000062
0.012225
-0.028319
-0.105353
-0.186441
-0.304018
-0.360780
-0.283746
-0.149951
-0.048591
0.000062
0.008170
0.012225
0.016279
0.016279
0.016279
0.016279
0.012225
0.016279
0.016279
0.016279
0.024388
0.024388
0.028442
0.028442
0.032497
0.036551
0.036551
0.044660
0.048714
0.048714
0.056823
0.052769
0.056823
0.056823
0.044660
0.036551
0.024388
0.016279
0.012225
0.000062
0.004116
0.000062
0.000062
0.000062
0.000062
0.000062
0.000062
0.004116
0.004116
0.004116
0.008170
0.008170
0.012225
0.016279
0.016279
0.024388
0.024388
0.028442
0.032497
0.028442
0.028442
0.020334
0.016279
0.016279
0.008170
0.008170
0.020334
0.012225
-0.064809
-0.149951
-0.247257
-0.356725
-0.364834
-0.235093
-0.109407
-0.024265
0.008170
0.016279
0.024388
0.028442
0.028442
0.036551
0.040606
0.032497
0.032497
0.020334
0.024388
0.024388
0.020334
0.028442
0.028442
0.036551
0.044660
0.044660
0.056823
0.060878
0.068986
0.068986
0.060878
0.060878
0.052769
0.048714
0.040606
0.032497
0.032497
0.024388
0.020334
0.020334
0.016279
0.016279
0.016279
0.004116
0.004116
0.000062
0.000062
0.000062
0.000062
0.008170
0.004116
0.016279
0.020334
-0.040482
-0.121570
-0.210767
-0.320236
-0.340508
-0.218876
-0.093190
-0.008047
0.020334
0.028442
0.028442
0.032497
0.028442
0.032497
0.028442
0.024388
0.024388
0.024388
0.024388
0.032497
0.032497
0.040606
0.040606
0.048714
0.056823
0.056823
0.068986
0.077095
0.073041
0.077095
0.068986
0.068986
0.056823
0.040606
0.032497
0.016279
0.008170
0.004116
0.000062
0.000062
0.000062
0.000062
0.000062
0.000062
0.004116
0.008170
0.008170
0.012225
0.012225
0.020334
0.024388
0.024388
0.032497
0.024388
0.020334
0.024388
0.020334
0.020334
0.016279
0.024388
0.028442
-0.044537
-0.137788
-0.231039
-0.328345
-0.344562
-0.235093
-0.109407
-0.024265
0.008170
0.016279
0.016279
0.024388
0.024388
0.028442
0.032497
0.028442
0.032497
0.028442
0.024388
0.020334
0.024388
0.028442
0.032497
0.032497
0.044660
0.044660
0.056823
0.060878
0.056823
0.060878
0.056823
0.056823
0.048714
0.036551
0.036551
0.028442
0.024388
0.024388
0.020334
0.016279
0.008170
0.000062
0.000062
0.000062
0.000062
0.000062
0.000062
0.000062
0.000062
0.000062
0.000062
0.004116
0.008170
0.004116
0.012225
0.016279
0.012225
0.020334
0.020334
0.016279
0.028442
0.016279
-0.068863
-0.149951
-0.251311
-0.344562
-0.328345
-0.190495
-0.076972
-0.012102
0.004116
0.008170
0.012225
0.016279
0.012225
0.020334
0.020334
0.020334
0.028442
0.020334
0.028442
0.032497
0.036551
0.036551
0.040606
0.048714
0.056823
0.056823
0.068986
0.068986
0.073041
0.073041
0.068986
0.064932
0.056823
0.040606
0.032497
0.012225
0.008170
0.000062
0.000062
0.000062
-0.003993
0.000062
0.000062
0.000062
0.000062
0.000062
0.000062
0.004116
0.004116
0.012225
0.008170
0.012225
0.020334
0.016279
0.028442
0.028442
0.024388
0.020334
0.020334
0.024388
0.016279
0.012225
0.012225
0.004116
0.004116
0.008170
0.000062
0.004116
0.008170
0.004116
0.012225
0.004116
0.008170
0.008170
0.004116
0.008170
0.004116
0.008170
0.012225
0.008170
0.016279
0.016279
0.020334
0.016279
0.008170
0.008170
0.004116
0.008170
-0.044537
-0.125625
-0.206713
-0.328345
-0.393215
-0.320236
-0.170223
-0.064809
-0.003993
0.004116
0.012225
0.020334
0.016279
0.024388
0.024388
0.028442
0.028442
0.028442
0.032497
0.032497
0.036551
0.044660
0.040606
0.044660
0.044660
0.044660
0.044660
0.040606
0.044660
0.044660
0.040606
0.044660
0.032497
0.032497
0.028442
0.020334
0.020334
0.012225
0.012225
0.012225
0.008170
0.012225
0.012225
0.012225
0.012225
0.008170
0.008170
0.008170
0.000062
0.000062
0.000062
0.000062
0.000062
0.000062
0.000062
0.000062
0.004116
0.012225
0.012225
0.016279
0.016279
0.020334
0.024388
0.024388
0.032497
0.000062
-0.076972
-0.154006
-0.271583
-0.336453
-0.283746
-0.154006
-0.052646
-0.003993
0.004116
0.008170
0.012225
0.004116
0.008170
0.012225
0.012225
0.016279
0.016279
0.016279
0.024388
0.016279
0.020334
0.028442
0.028442
0.040606
0.044660
0.056823
0.064932
0.060878
0.068986
0.064932
0.052769
0.036551
0.028442
0.016279
0.008170
0.000062
0.000062
0.000062
0.000062
0.000062
0.000062
0.000062
0.000062
0.000062
0.004116
0.004116
0.012225
0.008170
0.016279
0.020334
0.016279
0.016279
0.012225
0.008170
0.012225
0.008170
0.008170
0.008170
0.008170
0.020334
0.000062
-0.093190
-0.174278
-0.279692
-0.364834
-0.344562
-0.202658
-0.089135
-0.016156
0.016279
0.028442
0.028442
0.032497
0.032497
0.028442
0.028442
0.020334
0.020334
0.016279
0.024388
0.028442
0.020334
0.032497
0.036551
0.044660
0.052769
0.056823
0.064932
0.064932
0.068986
0.068986
0.064932
0.064932
0.056823
0.052769
0.036551
0.020334
0.012225
0.004116
0.000062
0.000062
0.000062
0.000062
0.000062
0.000062
0.000062
0.000062
0.000062
0.004116
0.004116
0.008170
0.012225
0.016279
0.024388
0.024388
0.028442
0.024388
0.024388
0.024388
0.020334
0.020334
0.016279
0.016279
0.016279
0.008170
0.008170
0.008170
0.008170
0.012225
0.008170
0.020334
0.012225
-0.060754
-0.137788
-0.235093
-0.340508
-0.356725
-0.226985
-0.097244
-0.012102
0.016279
0.024388
0.024388
0.024388
0.020334
0.020334
0.020334
0.016279
0.020334
0.016279
0.024388
0.028442
0.024388
0.028442
0.032497
0.036551
0.052769
0.052769
0.060878
0.060878
0.064932
0.068986
0.064932
0.068986
0.064932
0.048714
0.036551
0.016279
0.012225
0.008170
0.000062
0.000062
0.000062
0.000062
0.000062
0.000062
0.000062
0.000062
0.004116
0.008170
0.004116
0.016279
0.012225
0.016279
0.024388
0.020334
0.020334
0.016279
0.016279
0.020334
0.016279
0.020334
0.016279
0.012225
0.016279
0.012225
0.012225
0.012225
0.004116
0.012225
0.012225
0.012225
0.008170
0.012225
0.024388
0.012225
-0.068863
-0.141842
-0.243202
-0.340508
-0.328345
-0.198604
-0.081026
-0.012102
0.008170
0.012225
0.016279
0.020334
0.016279
0.020334
0.016279
0.020334
0.024388
0.024388
0.028442
0.024388
0.028442
0.036551
0.040606
0.048714
0.052769
0.052769
0.064932
0.064932
0.068986
0.068986
0.064932
0.064932
0.052769
0.040606
0.028442
0.012225
0.000062
0.000062
-0.003993
0.000062
0.000062
0.000062
0.000062
0.000062
0.000062
0.000062
0.000062
0.000062
0.000062
0.004116
0.004116
0.016279
0.020334
0.020334
0.020334
0.016279
0.016279
0.016279
0.008170
0.012225
0.008170
0.008170
0.012225
0.008170
0.012225
0.012225
0.012225
0.020334
-0.032374
-0.117516
-0.198604
-0.320236
-0.356725
-0.259420
-0.121570
-0.024265
0.012225
0.020334
0.016279
0.024388
0.016279
0.012225
0.016279
0.008170
0.012225
0.012225
0.012225
0.016279
0.016279
0.024388
0.024388
0.032497
0.040606
0.044660
0.052769
0.056823
0.056823
0.064932
0.064932
0.064932
0.056823
0.036551
0.028442
0.012225
0.012225
0.004116
0.000062
0.000062
0.000062
0.000062
0.000062
0.000062
0.000062
0.000062
0.000062
0.000062
0.000062
0.000062
0.004116
0.004116
0.012225
0.008170
0.008170
0.008170
0.004116
0.008170
0.004116
0.008170
0.008170
0.004116
0.008170
0.004116
0.000062
0.008170
0.012225
0.004116
-0.081026
-0.162114
-0.263474
-0.356725
-0.348617
-0.218876
-0.097244
-0.016156
0.016279
0.020334
0.024388
0.020334
0.016279
0.020334
0.012225
0.016279
0.020334
0.020334
0.024388
0.024388
0.024388
0.028442
0.028442
0.036551
0.044660
0.044660
0.052769
0.052769
0.056823
0.068986
0.060878
0.064932
0.052769
0.040606
0.024388
0.012225
0.012225
0.004116
0.000062
0.004116
0.000062
0.000062
0.000062
0.000062
0.000062
0.000062
0.000062
0.004116
0.004116
0.008170
0.016279
0.012225
0.016279
0.012225
0.008170
0.012225
0.016279
0.016279
0.016279
0.020334
0.020334
0.020334
0.020334
0.012225
0.020334
0.016279
0.016279
0.012225
0.012225
0.020334
0.012225
0.020334
0.016279
0.020334
0.020334
0.020334
0.016279
0.008170
0.012225
0.008170
0.012225
0.012225
0.004116
0.008170
0.004116
0.012225
0.012225
0.008170
0.008170
0.008170
0.008170
0.016279
0.024388
-0.048591
-0.133734
-0.226985
-0.340508
-0.389161
-0.299964
-0.149951
-0.044537
0.008170
0.020334
0.028442
0.028442
0.024388
0.024388
0.024388
0.024388
0.032497
0.028442
0.032497
0.032497
0.028442
0.040606
0.036551
0.044660
0.044660
0.048714
0.052769
0.056823
0.064932
0.064932
0.060878
0.064932
0.056823
0.056823
0.052769
0.040606
0.028442
0.020334
0.008170
0.008170
0.004116
0.004116
0.000062
0.000062
0.004116
0.000062
0.000062
0.004116
0.000062
0.000062
0.000062
0.000062
0.004116
-0.008047
-0.085081
-0.154006
-0.267529
