0.024388
0.004116
0.008170
0.004116
0.000062
0.004116
0.016279
0.024388
0.024388
0.040606
0.028442
0.056823
0.141965
0.235217
0.259543
0.186564
0.093313
-0.085081
-0.174278
-0.093190
-0.101298
-0.125625
-0.076972
-0.020210
-0.008047
0.004116
0.000062
-0.003993
0.000062
0.004116
0.016279
0.004116
0.016279
0.008170
0.004116
0.024388
0.012225
0.008170
0.008170
0.000062
-0.008047
0.000062
0.004116
0.004116
0.008170
0.008170
0.008170
0.020334
0.024388
0.036551
0.052769
0.060878
0.064932
0.077095
0.073041
0.048714
0.048714
0.052769
0.056823
0.044660
0.036551
0.024388
0.032497
0.024388
0.024388
0.012225
0.012225
0.008170
0.012225
0.020334
0.016279
0.016279
0.016279
0.020334
0.016279
0.016279
0.020334
0.036551
0.040606
0.028442
0.073041
0.174401
0.223053
0.178455
0.044660
-0.117516
-0.295909
-0.206713
-0.117516
-0.129679
-0.060754
-0.008047
-0.008047
-0.003993
0.008170
0.000062
-0.003993
0.008170
-0.012102
-0.003993
-0.020210
-0.020210
-0.020210
-0.016156
-0.008047
-0.008047
0.000062
-0.008047
-0.008047
-0.012102
-0.003993
-0.016156
-0.003993
-0.008047
-0.008047
0.004116
-0.003993
-0.012102
-0.016156
0.008170
0.020334
0.016279
0.024388
0.012225
0.008170
0.008170
-0.003993
0.000062
0.012225
-0.008047
-0.003993
-0.020210
-0.016156
-0.024265
-0.008047
-0.012102
-0.008047
-0.012102
-0.008047
-0.003993
-0.016156
-0.020210
-0.012102
-0.003993
0.000062
0.012225
-0.012102
-0.024265
-0.020210
-0.028319
-0.028319
-0.036428
-0.028319
-0.032374
0.000062
0.101422
0.214945
0.218999
0.182509
-0.020210
-0.299964
-0.320236
-0.174278
-0.166169
-0.141842
-0.072918
-0.032374
-0.040482
-0.040482
-0.040482
-0.032374
-0.024265
-0.024265
-0.003993
0.000062
0.004116
0.000062
0.004116
0.028442
0.008170
0.012225
0.004116
-0.012102
-0.020210
-0.024265
-0.024265
-0.028319
-0.024265
-0.032374
-0.032374
-0.024265
-0.008047
-0.008047
0.008170
0.016279
0.036551
0.036551
0.028442
0.008170
0.000062
-0.008047
-0.012102
-0.008047
-0.008047
-0.008047
-0.008047
-0.016156
-0.016156
-0.016156
-0.008047
-0.020210
0.000062
0.008170
0.004116
-0.003993
-0.003993
-0.003993
-0.020210
-0.016156
-0.008047
-0.003993
-0.016156
-0.003993
0.000062
-0.024265
-0.024265
-0.020210
-0.020210
-0.036428
-0.024265
-0.044537
-0.040482
-0.032374
-0.028319
-0.036428
-0.024265
-0.024265
-0.020210
-0.020210
-0.012102
-0.008047
-0.012102
-0.016156
-0.020210
-0.008047
-0.028319
-0.032374
-0.040482
-0.036428
-0.020210
-0.024265
-0.024265
-0.012102
-0.003993
-0.003993
-0.012102
-0.003993
0.016279
0.016279
0.000062
0.020334
0.012225
0.008170
0.020334
0.016279
0.040606
0.097367
0.206836
0.275761
0.235217
0.170346
-0.024265
-0.222930
-0.174278
-0.109407
-0.129679
-0.081026
-0.028319
-0.003993
0.012225
0.004116
0.012225
0.024388
0.024388
0.028442
0.040606
0.032497
0.028442
0.036551
0.028442
0.020334
0.004116
0.004116
-0.012102
0.000062
-0.012102
-0.020210
0.000062
0.004116
0.008170
0.032497
0.028442
0.036551
0.052769
0.052769
0.060878
0.056823
0.068986
0.060878
0.048714
0.024388
0.004116
0.012225
-0.003993
-0.024265
-0.016156
0.004116
0.008170
0.008170
0.036551
0.032497
0.036551
0.036551
0.036551
0.028442
0.032497
0.024388
0.020334
0.016279
0.020334
0.020334
0.028442
0.032497
0.024388
0.024388
0.020334
0.020334
0.020334
0.036551
0.032497
0.028442
0.040606
0.036551
0.020334
0.012225
0.008170
0.008170
0.064932
0.166292
0.231162
0.198727
0.141965
-0.044537
-0.320236
-0.283746
-0.149951
-0.145897
-0.133734
-0.048591
-0.008047
0.000062
0.012225
0.008170
0.000062
0.004116
-0.003993
0.000062
0.004116
0.016279
-0.003993
0.016279
0.024388
0.020334
0.016279
0.016279
0.008170
0.016279
0.012225
0.012225
0.020334
0.020334
0.032497
0.040606
0.028442
0.044660
0.044660
0.040606
0.044660
0.040606
0.032497
0.032497
0.036551
0.016279
0.004116
0.000062
-0.012102
-0.012102
0.004116
0.012225
0.016279
0.008170
0.012225
0.012225
0.004116
0.004116
0.000062
-0.003993
0.000062
-0.003993
-0.012102
-0.012102
-0.016156
-0.012102
-0.016156
-0.003993
0.004116
0.020334
0.020334
0.016279
0.008170
0.012225
0.000062
-0.003993
-0.016156
-0.020210
-0.024265
-0.016156
-0.036428
-0.044537
-0.040482
-0.040482
-0.032374
-0.020210
-0.028319
-0.024265
-0.020210
0.004116
0.012225
0.012225
0.024388
0.016279
0.012225
-0.012102
-0.003993
-0.016156
-0.028319
-0.032374
-0.032374
-0.036428
-0.036428
-0.028319
-0.040482
-0.003993
0.113585
0.223053
0.271706
0.223053
0.020334
-0.287801
-0.397269
-0.263474
-0.190495
-0.133734
-0.056700
-0.024265
-0.016156
-0.016156
-0.016156
-0.016156
-0.008047
-0.008047
0.008170
0.020334
0.024388
0.040606
0.024388
0.020334
0.008170
-0.008047
-0.003993
0.000062
-0.003993
-0.003993
-0.003993
-0.008047
0.000062
-0.024265
-0.028319
-0.024265
-0.020210
-0.012102
0.004116
0.028442
0.036551
0.024388
0.004116
0.008170
-0.012102
-0.024265
-0.024265
-0.020210
-0.020210
-0.020210
-0.020210
-0.024265
-0.020210
-0.008047
-0.008047
0.000062
0.000062
0.008170
0.004116
-0.003993
-0.016156
-0.016156
-0.016156
-0.016156
-0.016156
-0.024265
-0.024265
-0.020210
-0.016156
-0.024265
-0.016156
-0.012102
-0.008047
-0.016156
-0.016156
-0.016156
-0.024265
-0.032374
-0.044537
-0.048591
-0.052646
-0.048591
-0.040482
-0.048591
-0.044537
-0.032374
0.060878
0.174401
0.223053
0.162237
0.004116
-0.247257
-0.352671
-0.235093
-0.154006
-0.145897
-0.076972
-0.016156
-0.012102
-0.008047
0.004116
-0.016156
-0.008047
0.004116
0.008170
0.012225
0.004116
0.000062
0.012225
0.020334
0.012225
0.016279
0.016279
0.020334
0.028442
0.024388
0.036551
0.032497
0.028442
0.036551
0.040606
0.052769
0.056823
0.044660
0.040606
0.036551
0.052769
0.052769
0.056823
0.032497
0.028442
0.016279
0.020334
0.016279
0.028442
0.036551
0.048714
0.044660
0.056823
0.048714
0.044660
0.040606
0.044660
0.040606
0.032497
0.028442
0.028442
0.020334
0.008170
0.000062
0.008170
0.032497
0.028442
0.012225
0.052769
0.182509
0.259543
0.202781
0.089258
-0.008047
-0.162114
-0.064809
-0.012102
-0.072918
-0.076972
-0.020210
-0.020210
-0.036428
-0.032374
-0.032374
-0.016156
-0.012102
-0.008047
0.012225
0.004116
0.012225
0.008170
-0.003993
0.012225
0.004116
-0.003993
0.000062
0.000062
0.000062
0.000062
-0.012102
-0.024265
-0.028319
-0.008047
0.004116
0.008170
0.024388
0.032497
0.040606
0.040606
0.040606
0.040606
0.028442
0.020334
0.020334
0.016279
0.024388
0.024388
0.024388
0.004116
0.004116
0.008170
-0.003993
-0.008047
-0.008047
-0.016156
-0.016156
-0.008047
-0.008047
-0.008047
0.000062
0.000062
-0.003993
0.000062
0.000062
0.004116
0.020334
0.016279
0.028442
0.036551
0.020334
0.016279
0.016279
0.004116
0.000062
0.004116
0.000062
-0.003993
0.008170
0.101422
0.198727
0.235217
0.170346
0.012225
-0.255365
-0.372943
-0.210767
-0.129679
-0.121570
-0.048591
0.008170
0.020334
0.024388
0.032497
0.024388
0.028442
0.028442
0.024388
0.012225
0.000062
0.000062
-0.003993
0.000062
-0.008047
-0.008047
0.012225
0.020334
0.028442
0.036551
0.036551
0.036551
0.028442
0.008170
0.012225
0.004116
0.012225
0.020334
0.024388
0.020334
0.032497
0.028442
0.024388
0.016279
0.020334
0.020334
0.020334
0.036551
0.044660
0.024388
0.008170
0.004116
0.000062
0.004116
0.000062
-0.003993
-0.003993
-0.003993
0.004116
-0.003993
-0.003993
0.008170
0.024388
0.028442
0.024388
0.032497
0.028442
0.020334
0.016279
0.008170
-0.008047
-0.012102
-0.028319
-0.032374
-0.048591
-0.040482
-0.036428
-0.036428
-0.040482
-0.036428
0.000062
0.109530
0.227108
0.223053
0.154129
-0.064809
-0.348617
-0.360780
-0.186441
-0.174278
-0.141842
-0.064809
-0.036428
-0.028319
-0.032374
-0.024265
-0.028319
-0.028319
-0.032374
-0.020210
-0.024265
-0.020210
0.000062
-0.008047
-0.016156
-0.020210
-0.024265
-0.020210
-0.020210
-0.012102
-0.016156
-0.032374
-0.024265
-0.032374
-0.024265
-0.024265
-0.012102
0.004116
0.020334
0.016279
0.032497
0.032497
0.028442
0.012225
-0.003993
-0.016156
-0.020210
-0.032374
-0.044537
-0.044537
-0.044537
-0.044537
-0.040482
-0.036428
-0.012102
-0.008047
-0.003993
-0.008047
0.004116
0.008170
0.000062
0.000062
-0.020210
-0.020210
-0.028319
-0.020210
-0.008047
-0.008047
-0.024265
-0.024265
-0.024265
-0.016156
-0.024265
-0.020210
-0.016156
-0.003993
-0.016156
-0.003993
0.000062
0.012225
0.012225
0.048714
0.158183
0.235217
0.182509
0.097367
-0.081026
-0.283746
-0.202658
-0.121570
-0.125625
-0.097244
-0.028319
-0.003993
-0.003993
-0.008047
-0.003993
0.000062
0.004116
0.000062
0.000062
0.000062
0.012225
0.016279
0.016279
0.008170
0.012225
0.012225
0.028442
0.020334
0.020334
0.008170
0.020334
0.004116
0.008170
0.020334
0.024388
0.016279
0.024388
0.040606
0.064932
0.073041
0.085204
0.081150
0.060878
0.052769
0.048714
0.028442
0.024388
0.024388
0.016279
0.016279
0.012225
0.012225
0.012225
0.016279
0.012225
0.016279
0.016279
0.024388
0.044660
0.036551
0.044660
0.044660
0.044660
0.052769
0.137911
0.247380
0.275761
0.194673
0.064932
-0.093190
-0.105353
-0.008047
-0.052646
-0.093190
-0.036428
-0.020210
-0.024265
-0.016156
-0.012102
-0.008047
-0.003993
-0.008047
-0.003993
0.000062
-0.003993
-0.008047
-0.008047
-0.012102
-0.012102
-0.012102
-0.012102
-0.020210
-0.028319
-0.036428
-0.032374
-0.016156
-0.016156
-0.016156
-0.008047
-0.008047
0.008170
0.016279
0.024388
0.028442
0.024388
0.020334
0.016279
0.004116
0.004116
-0.003993
-0.008047
-0.008047
0.000062
0.012225
0.016279
0.012225
0.020334
0.016279
0.020334
0.012225
0.004116
0.004116
0.008170
0.012225
0.012225
0.008170
0.008170
0.008170
0.012225
0.012225
0.016279
0.012225
0.016279
0.020334
0.012225
0.004116
-0.003993
-0.003993
0.000062
-0.003993
-0.008047
-0.020210
-0.020210
-0.020210
-0.020210
-0.012102
-0.016156
-0.012102
0.016279
0.113585
0.214945
0.243325
0.182509
0.004116
-0.267529
-0.368889
-0.218876
-0.162114
-0.141842
-0.052646
-0.008047
0.008170
0.008170
-0.008047
-0.016156
-0.028319
-0.020210
-0.020210
-0.003993
0.000062
-0.008047
-0.012102
0.000062
-0.003993
-0.012102
0.000062
0.008170
0.016279
0.024388
0.020334
0.028442
0.028442
0.024388
0.012225
0.016279
0.008170
0.024388
0.032497
0.028442
0.028442
0.020334
0.012225
0.012225
0.008170
0.008170
0.016279
0.020334
0.020334
0.016279
0.020334
0.016279
0.020334
0.012225
0.016279
0.012225
0.008170
0.008170
0.008170
0.004116
-0.012102
-0.008047
0.004116
0.000062
-0.003993
0.004116
0.008170
0.008170
0.008170
0.008170
0.008170
-0.003993
-0.012102
-0.016156
-0.016156
-0.024265
-0.024265
-0.032374
-0.036428
0.032497
0.125748
0.178455
0.150074
0.044660
-0.166169
-0.356725
-0.218876
-0.125625
-0.133734
-0.097244
-0.028319
-0.016156
-0.008047
-0.008047
-0.016156
-0.012102
-0.024265
-0.032374
-0.032374
-0.032374
-0.024265
-0.028319
-0.020210
-0.008047
-0.012102
-0.008047
0.000062
0.000062
0.012225
0.008170
0.016279
0.012225
-0.003993
-0.012102
-0.016156
-0.028319
-0.012102
0.000062
0.008170
0.020334
0.020334
0.024388
0.016279
0.016279
0.012225
0.008170
0.000062
0.000062
0.000062
-0.008047
-0.003993
-0.016156
-0.024265
-0.012102
-0.008047
0.008170
-0.003993
0.012225
0.016279
0.028442
0.036551
0.048714
0.040606
0.024388
0.024388
0.012225
0.012225
0.020334
0.020334
0.105476
0.178455
0.158183
0.105476
-0.044537
-0.255365
-0.267529
-0.097244
-0.085081
-0.101298
-0.036428
-0.003993
0.004116
0.000062
-0.008047
-0.008047
-0.012102
-0.003993
0.008170
0.016279
0.020334
0.016279
0.004116
0.000062
-0.003993
0.000062
0.004116
0.000062
-0.008047
-0.008047
-0.012102
-0.020210
-0.020210
-0.032374
-0.020210
-0.012102
0.000062
0.024388
0.044660
0.052769
0.056823
0.044660
0.048714
0.040606
0.040606
0.036551
0.016279
0.012225
0.008170
-0.008047
-0.012102
0.004116
0.004116
0.004116
0.012225
0.008170
0.012225
0.016279
0.024388
0.036551
0.028442
0.036551
0.028442
0.028442
0.032497
0.016279
0.020334
0.012225
-0.003993
-0.012102
-0.008047
-0.008047
-0.028319
-0.032374
-0.032374
-0.028319
-0.020210
-0.008047
0.004116
0.008170
0.044660
0.150074
0.243325
0.223053
0.170346
0.008170
-0.235093
-0.235093
-0.113462
-0.141842
-0.141842
-0.064809
-0.028319
-0.012102
-0.020210
-0.008047
-0.003993
-0.003993
0.000062
0.000062
0.000062
-0.003993
0.000062
-0.008047
-0.016156
-0.020210
-0.016156
-0.016156
-0.020210
-0.003993
-0.003993
-0.012102
-0.003993
0.000062
0.008170
0.020334
0.032497
0.036551
0.044660
0.052769
0.056823
0.052769
0.040606
0.024388
0.016279
0.016279
0.012225
0.004116
0.012225
0.012225
-0.003993
-0.008047
0.004116
0.004116
0.004116
0.004116
0.008170
0.012225
0.012225
0.012225
0.016279
0.020334
0.028442
0.028442
0.028442
0.028442
0.040606
0.044660
0.028442
0.008170
0.012225
0.008170
0.012225
0.008170
0.000062
-0.003993
-0.016156
-0.020210
-0.020210
-0.008047
0.004116
0.012225
0.024388
0.081150
0.198727
0.255489
0.210890
0.093313
-0.141842
-0.352671
-0.287801
-0.162114
-0.141842
-0.097244
-0.028319
-0.012102
-0.024265
-0.012102
-0.012102
-0.008047
-0.008047
0.000062
0.000062
0.000062
0.008170
0.008170
0.004116
0.004116
0.004116
0.008170
0.008170
0.000062
0.000062
0.000062
0.004116
0.012225
0.020334
0.024388
0.024388
0.016279
0.020334
0.016279
0.016279
0.020334
0.040606
0.032497
0.024388
0.016279
0.016279
0.012225
0.000062
0.004116
0.016279
0.008170
0.020334
0.012225
0.008170
0.008170
0.008170
0.004116
0.000062
0.000062
-0.008047
-0.008047
0.000062
0.004116
0.004116
0.012225
0.012225
0.012225
0.004116
0.008170
0.000062
-0.003993
-0.012102
0.012225
0.073041
0.150074
0.146020
0.117639
-0.072918
-0.320236
-0.324290
-0.133734
-0.121570
-0.125625
-0.048591
-0.020210
-0.012102
-0.016156
-0.028319
-0.028319
-0.016156
-0.012102
-0.028319
-0.016156
-0.020210
-0.032374
-0.036428
-0.040482
-0.040482
-0.036428
-0.044537
-0.040482
-0.028319
-0.028319
-0.024265
-0.032374
-0.040482
-0.044537
-0.036428
-0.024265
-0.012102
0.000062
0.008170
0.012225
0.004116
0.012225
0.000062
0.012225
0.012225
0.004116
0.008170
0.024388
0.016279
-0.012102
-0.016156
-0.020210
-0.016156
-0.003993
0.000062
0.008170
0.004116
0.000062
0.016279
0.028442
0.024388
0.028442
0.036551
0.044660
0.044660
0.036551
0.028442
0.016279
0.016279
0.000062
0.000062
0.000062
0.000062
-0.003993
0.008170
0.008170
0.028442
0.028442
0.040606
0.093313
0.190618
0.239271
0.186564
0.105476
-0.076972
-0.271583
-0.190495
-0.109407
-0.129679
-0.113462
-0.032374
-0.012102
0.004116
0.020334
0.024388
0.044660
0.048714
0.040606
0.032497
0.012225
0.016279
0.012225
0.000062
-0.008047
-0.012102
-0.024265
-0.024265
-0.036428
-0.032374
-0.028319
-0.016156
-0.008047
0.000062
0.032497
0.028442
0.032497
0.036551
0.044660
0.048714
0.056823
0.048714
0.052769
0.032497
0.020334
0.016279
0.008170
0.000062
0.004116
-0.003993
-0.016156
0.000062
-0.003993
0.016279
0.024388
0.004116
0.008170
0.016279
0.016279
0.024388
0.032497
0.024388
0.036551
0.028442
0.028442
0.020334
0.028442
0.073041
0.162237
0.170346
0.113585
0.008170
-0.097244
-0.194550
-0.089135
-0.060754
-0.113462
-0.064809
-0.016156
-0.003993
0.000062
0.004116
-0.008047
0.000062
-0.008047
-0.012102
-0.016156
-0.032374
-0.032374
-0.044537
-0.044537
-0.032374
-0.020210
-0.012102
-0.016156
-0.020210
-0.012102
-0.016156
-0.012102
-0.016156
-0.008047
-0.003993
0.004116
0.000062
0.012225
0.016279
0.020334
0.024388
0.024388
0.028442
0.024388
0.048714
0.028442
0.020334
0.020334
0.016279
0.008170
0.004116
0.004116
0.004116
0.000062
0.000062
0.000062
-0.012102
-0.008047
0.012225
0.020334
0.024388
0.036551
0.048714
0.044660
0.036551
0.032497
0.024388
0.004116
0.008170
0.012225
-0.003993
-0.020210
-0.028319
-0.044537
-0.040482
-0.028319
-0.028319
-0.012102
0.004116
0.004116
0.020334
0.004116
0.004116
-0.003993
-0.008047
-0.012102
-0.020210
-0.024265
-0.028319
-0.036428
-0.032374
-0.028319
-0.032374
-0.016156
-0.016156
0.044660
0.170346
0.255489
0.223053
0.150074
-0.068863
-0.332399
-0.336453
-0.174278
-0.162114
-0.125625
-0.056700
-0.028319
-0.028319
-0.024265
-0.032374
-0.003993
0.000062
0.000062
-0.008047
-0.008047
-0.008047
0.004116
-0.003993
0.000062
-0.008047
-0.008047
-0.012102
-0.012102
-0.012102
0.000062
0.004116
0.004116
0.008170
0.004116
-0.003993
-0.012102
0.004116
0.012225
0.024388
0.036551
0.036551
0.036551
0.044660
0.044660
0.040606
0.024388
0.020334
0.012225
0.008170
0.012225
0.012225
0.016279
0.012225
0.012225
0.012225
0.016279
0.028442
0.032497
0.040606
0.040606
0.048714
0.048714
0.044660
0.040606
0.036551
0.028442
0.028442
0.012225
0.000062
0.000062
0.004116
0.000062
0.004116
-0.003993
0.000062
-0.003993
0.000062
-0.003993
0.008170
0.020334
0.024388
0.024388
0.012225
0.020334
0.008170
0.004116
-0.012102
-0.020210
-0.020210
-0.020210
-0.032374
-0.024265
-0.016156
-0.020210
-0.012102
-0.003993
-0.008047
0.000062
0.012225
0.008170
0.004116
0.040606
0.133857
0.214945
0.198727
0.133857
-0.060754
-0.328345
-0.356725
-0.186441
-0.154006
-0.101298
-0.020210
0.012225
0.008170
0.012225
0.004116
0.008170
0.008170
-0.003993
-0.008047
-0.003993
-0.008047
-0.003993
-0.016156
-0.012102
-0.016156
-0.003993
-0.012102
-0.008047
0.000062
0.016279
0.020334
0.020334
0.012225
-0.020210
-0.024265
-0.028319
-0.016156
-0.003993
0.008170
0.016279
0.024388
0.020334
0.024388
0.024388
0.020334
0.024388
0.024388
0.016279
0.024388
0.020334
0.012225
0.012225
0.012225
0.004116
0.012225
0.016279
0.012225
0.016279
0.012225
0.020334
0.012225
0.016279
0.012225
0.012225
0.020334
0.016279
0.008170
0.008170
0.016279
0.016279
0.020334
0.008170
0.000062
-0.008047
-0.020210
-0.028319
-0.024265
-0.032374
-0.024265
-0.036428
-0.028319
-0.040482
-0.028319
-0.020210
-0.016156
-0.003993
0.008170
0.052769
0.158183
0.239271
0.206836
0.121693
-0.081026
-0.340508
-0.348617
-0.182386
-0.158060
-0.137788
-0.052646
-0.024265
-0.024265
-0.016156
0.004116
0.000062
0.012225
0.012225
-0.008047
0.000062
-0.008047
-0.008047
-0.008047
-0.020210
-0.020210
-0.024265
-0.024265
-0.020210
-0.020210
0.000062
0.012225
0.012225
0.024388
0.036551
0.044660
0.040606
0.040606
0.036551
0.040606
0.036551
0.028442
0.036551
0.024388
0.028442
0.024388
0.004116
0.004116
0.004116
0.004116
0.020334
0.024388
0.028442
0.032497
0.024388
0.016279
0.020334
0.016279
0.016279
0.028442
0.032497
0.036551
0.044660
0.085204
0.170346
0.247380
0.223053
0.101422
-0.020210
-0.190495
-0.125625
-0.036428
-0.085081
-0.064809
-0.012102
0.008170
0.008170
0.016279
0.016279
0.032497
0.036551
0.008170
0.004116
-0.003993
-0.008047
-0.016156
-0.036428
-0.024265
-0.036428
-0.048591
-0.036428
-0.036428
-0.020210
-0.024265
-0.028319
-0.024265
-0.024265
-0.012102
-0.008047
0.004116
0.016279
0.008170
0.012225
0.016279
0.008170
0.012225
0.000062
-0.016156
-0.024265
-0.024265
-0.016156
0.004116
0.012225
0.016279
0.020334
0.028442
0.036551
0.040606
0.036551
0.028442
0.024388
0.028442
0.028442
0.020334
0.016279
0.012225
0.000062
-0.008047
-0.008047
-0.012102
-0.012102
0.048714
0.121693
0.121693
0.081150
-0.028319
-0.210767
-0.255365
-0.093190
-0.072918
-0.109407
-0.048591
-0.016156
-0.020210
-0.012102
-0.012102
-0.008047
-0.012102
-0.024265
-0.012102
-0.016156
-0.008047
0.000062
-0.003993
0.008170
0.004116
0.004116
0.004116
0.008170
0.000062
-0.012102
-0.003993
-0.012102
-0.020210
-0.016156
-0.012102
-0.008047
-0.008047
0.012225
0.032497
0.044660
0.040606
0.040606
0.048714
0.048714
0.040606
0.024388
0.020334
0.020334
0.012225
0.008170
0.004116
0.004116
0.012225
0.008170
0.004116
0.008170
0.008170
0.028442
0.024388
0.020334
0.020334
0.024388
0.016279
0.012225
0.012225
0.000062
-0.003993
-0.012102
-0.003993
0.000062
-0.003993
-0.008047
-0.008047
0.000062
0.048714
0.125748
0.186564
0.158183
0.121693
-0.052646
-0.287801
-0.210767
-0.089135
-0.125625
-0.133734
-0.052646
-0.036428
-0.016156
-0.012102
-0.008047
-0.008047
-0.012102
-0.020210
-0.016156
-0.016156
-0.012102
-0.016156
-0.008047
0.000062
-0.003993
-0.012102
-0.008047
-0.020210
-0.024265
-0.036428
-0.036428
-0.028319
-0.032374
-0.024265
-0.008047
0.012225
0.028442
0.024388
0.032497
0.036551
0.044660
0.040606
0.032497
0.016279
0.008170
0.000062
0.004116
-0.012102
-0.012102
-0.012102
-0.008047
-0.003993
0.004116
0.016279
0.004116
-0.003993
0.020334
0.020334
0.020334
0.016279
0.020334
0.016279
0.012225
0.008170
0.008170
0.004116
0.000062
-0.008047
-0.016156
-0.020210
-0.020210
-0.024265
-0.024265
-0.028319
-0.028319
-0.016156
-0.008047
0.000062
-0.016156
-0.003993
-0.012102
0.048714
0.154129
0.214945
0.178455
0.073041
-0.137788
-0.344562
-0.251311
-0.133734
-0.149951
-0.109407
-0.028319
-0.008047
-0.016156
0.000062
-0.003993
0.000062
0.000062
0.000062
-0.003993
-0.008047
-0.003993
0.004116
-0.003993
0.004116
-0.012102
-0.016156
-0.020210
-0.024265
-0.024265
-0.020210
-0.003993
-0.003993
0.004116
0.012225
0.012225
0.024388
0.036551
0.052769
0.060878
0.052769
0.048714
0.044660
0.020334
0.012225
0.000062
-0.003993
-0.012102
-0.008047
-0.016156
-0.003993
0.004116
0.020334
0.032497
0.040606
0.048714
0.040606
0.044660
0.028442
0.032497
0.028442
0.028442
0.032497
0.024388
0.016279
0.000062
0.016279
0.016279
0.012225
0.008170
0.012225
0.016279
0.016279
0.016279
0.008170
0.008170
0.012225
0.012225
0.012225
0.008170
0.000062
0.068986
0.146020
0.202781
0.141965
0.056823
-0.121570
-0.263474
-0.133734
-0.101298
-0.149951
-0.117516
-0.048591
-0.028319
-0.008047
0.000062
0.000062
0.008170
0.004116
0.004116
0.004116
0.004116
0.008170
0.000062
0.004116
0.000062
-0.012102
-0.008047
-0.020210
-0.036428
-0.032374
-0.036428
-0.016156
-0.016156
-0.024265
-0.020210
-0.003993
0.008170
0.032497
0.032497
0.052769
0.064932
0.077095
0.077095
0.064932
0.044660
0.016279
0.000062
-0.012102
-0.012102
-0.024265
-0.036428
-0.028319
-0.020210
-0.008047
-0.003993
0.012225
0.020334
0.028442
0.040606
0.040606
0.052769
0.052769
0.056823
0.048714
0.032497
0.024388
0.016279
0.000062
-0.024265
-0.020210
-0.016156
-0.020210
-0.024265
-0.024265
-0.016156
-0.012102
-0.003993
-0.012102
-0.003993
0.008170
0.028442
0.028442
0.024388
0.016279
0.008170
-0.012102
-0.012102
-0.012102
-0.012102
-0.028319
-0.032374
-0.036428
-0.028319
-0.032374
-0.028319
-0.024265
-0.016156
-0.012102
0.000062
0.012225
0.012225
0.012225
0.036551
0.125748
0.198727
0.206836
0.158183
-0.020210
-0.275637
-0.348617
-0.198604
-0.154006
-0.121570
-0.048591
-0.003993
0.012225
0.008170
0.000062
0.004116
0.000062
0.000062
0.012225
0.008170
0.004116
0.004116
-0.003993
-0.008047
-0.003993
-0.008047
-0.012102
-0.003993
0.000062
0.004116
0.004116
0.000062
0.008170
0.008170
0.008170
0.012225
0.020334
0.028442
0.032497
0.032497
0.048714
0.036551
0.036551
0.028442
0.016279
0.008170
0.016279
0.032497
0.024388
0.012225
-0.003993
0.004116
0.012225
0.016279
0.008170
0.016279
0.020334
0.020334
0.012225
0.008170
0.020334
0.020334
0.032497
0.044660
0.052769
0.044660
0.028442
0.020334
0.004116
0.016279
0.008170
0.028442
0.068986
0.125748
0.129802
0.081150
-0.028319
-0.239148
-0.263474
-0.076972
-0.072918
-0.125625
-0.048591
-0.003993
0.000062
0.000062
-0.012102
-0.012102
0.004116
-0.012102
-0.008047
-0.003993
-0.008047
0.004116
0.000062
0.004116
0.012225
0.008170
0.008170
0.008170
-0.003993
-0.003993
-0.024265
-0.028319
-0.024265
-0.032374
-0.028319
-0.020210
-0.008047
0.016279
0.024388
0.044660
0.052769
0.056823
0.048714
0.052769
0.044660
0.040606
0.028442
0.024388
0.020334
0.000062
-0.024265
-0.032374
-0.024265
-0.024265
-0.024265
-0.020210
-0.016156
-0.012102
0.008170
0.020334
0.028442
0.020334
0.020334
0.028442
0.028442
0.024388
0.004116
-0.012102
-0.012102
-0.020210
-0.024265
-0.012102
-0.016156
-0.012102
0.000062
0.000062
0.000062
0.000062
0.000062
0.008170
0.008170
0.012225
0.085204
0.166292
0.214945
0.146020
0.004116
-0.198604
-0.348617
-0.218876
-0.117516
-0.125625
-0.093190
-0.024265
-0.012102
-0.012102
-0.008047
-0.012102
0.000062
0.008170
0.008170
0.008170
-0.008047
-0.012102
-0.016156
-0.016156
-0.003993
-0.012102
0.004116
0.004116
0.012225
0.016279
0.012225
0.004116
0.000062
0.004116
0.008170
0.012225
0.016279
0.024388
0.036551
0.040606
0.044660
0.040606
0.032497
0.008170
0.008170
0.004116
-0.003993
-0.003993
0.008170
0.008170
0.008170
0.008170
-0.003993
-0.008047
0.000062
0.012225
0.016279
0.028442
0.028442
0.028442
0.024388
0.012225
0.012225
0.016279
0.000062
-0.012102
-0.020210
-0.016156
-0.012102
-0.003993
-0.003993
-0.003993
0.000062
0.004116
0.000062
0.008170
0.016279
0.056823
0.141965
0.218999
0.190618
0.146020
-0.064809
-0.304018
-0.226985
-0.105353
-0.137788
-0.105353
-0.016156
0.000062
0.000062
0.004116
0.000062
0.008170
0.004116
0.000062
0.004116
-0.003993
0.004116
-0.003993
-0.012102
-0.008047
-0.020210
-0.016156
-0.016156
-0.024265
-0.016156
-0.012102
-0.016156
-0.003993
-0.012102
-0.012102
0.004116
0.012225
0.020334
0.040606
0.048714
0.056823
0.052769
0.040606
0.028442
0.012225
0.008170
0.008170
0.004116
0.004116
-0.008047
-0.008047
-0.012102
-0.012102
-0.012102
0.004116
0.004116
0.004116
0.012225
0.012225
0.004116
0.012225
0.008170
0.012225
0.008170
0.012225
0.004116
0.000062
0.012225
0.008170
-0.008047
-0.008047
-0.012102
-0.016156
-0.016156
-0.008047
-0.020210
-0.016156
-0.016156
-0.016156
-0.012102
-0.008047
-0.003993
-0.003993
0.032497
0.137911
0.231162
0.218999
0.141965
-0.048591
-0.279692
-0.271583
-0.125625
-0.141842
-0.129679
-0.060754
-0.028319
-0.020210
-0.012102
-0.008047
-0.008047
0.000062
0.004116
0.016279
0.020334
0.016279
0.016279
0.012225
0.008170
0.012225
-0.003993
-0.012102
-0.003993
-0.008047
-0.008047
-0.008047
-0.003993
0.004116
0.004116
0.012225
0.028442
0.044660
0.064932
0.068986
0.081150
0.073041
0.060878
0.048714
0.040606
0.016279
0.000062
-0.008047
-0.016156
-0.008047
-0.008047
0.004116
0.004116
0.008170
0.016279
0.020334
0.028442
0.036551
0.044660
0.048714
0.044660
0.036551
0.040606
0.028442
0.016279
0.004116
-0.016156
-0.012102
-0.008047
-0.008047
-0.012102
0.000062
0.004116
0.008170
0.008170
0.004116
0.012225
0.020334
0.008170
0.008170
0.004116
0.004116
-0.003993
-0.012102
-0.024265
-0.028319
-0.032374
-0.036428
-0.028319
-0.028319
-0.028319
-0.024265
-0.012102
-0.012102
-0.016156
-0.008047
-0.003993
-0.008047
0.000062
0.004116
-0.003993
-0.003993
-0.012102
-0.016156
0.008170
0.081150
0.170346
0.198727
0.158183
-0.016156
-0.259420
-0.332399
-0.194550
-0.141842
-0.121570
-0.048591
-0.008047
-0.008047
0.000062
0.000062
0.000062
-0.003993
-0.003993
-0.012102
-0.008047
-0.008047
-0.008047
-0.016156
-0.016156
-0.016156
-0.012102
-0.008047
0.000062
-0.012102
-0.012102
-0.003993
0.000062
0.008170
0.000062
0.004116
0.012225
0.016279
0.032497
0.048714
0.048714
0.040606
0.032497
0.020334
0.008170
0.000062
-0.003993
0.000062
-0.003993
0.000062
-0.008047
-0.003993
0.008170
0.028442
0.036551
0.044660
0.040606
0.044660
0.040606
0.040606
0.028442
0.032497
0.036551
0.024388
0.008170
-0.003993
-0.012102
-0.012102
-0.012102
-0.003993
-0.003993
0.004116
-0.003993
-0.003993
-0.003993
0.012225
0.016279
0.016279
0.077095
0.146020
0.186564
0.154129
0.060878
-0.170223
-0.320236
-0.174278
-0.117516
-0.154006
-0.089135
-0.024265
-0.003993
0.004116
0.008170
-0.003993
0.012225
0.016279
0.016279
0.020334
0.008170
0.000062
-0.024265
-0.036428
-0.032374
-0.044537
-0.040482
-0.024265
-0.016156
0.004116
0.000062
0.008170
0.020334
0.004116
0.000062
0.008170
0.024388
0.044660
0.044660
0.044660
0.036551
0.024388
0.012225
0.004116
-0.003993
-0.003993
0.000062
0.000062
0.004116
0.008170
0.004116
0.008170
0.008170
0.024388
0.028442
0.028442
0.024388
0.016279
0.012225
0.004116
-0.008047
-0.008047
-0.012102
-0.020210
-0.020210
-0.012102
-0.008047
0.000062
0.012225
0.008170
0.024388
0.012225
0.020334
0.028442
0.028442
0.020334
0.008170
0.016279
0.073041
0.146020
0.186564
0.158183
0.052769
-0.166169
-0.291855
-0.162114
-0.113462
-0.154006
-0.076972
-0.012102
0.012225
0.012225
0.020334
0.012225
0.016279
0.008170
0.004116
0.000062
-0.016156
-0.016156
-0.012102
-0.012102
-0.016156
-0.028319
-0.016156
-0.016156
-0.012102
0.004116
0.004116
0.004116
0.004116
0.004116
0.012225
0.012225
0.024388
0.036551
0.040606
0.040606
0.036551
0.032497
0.016279
0.008170
-0.012102
-0.016156
-0.003993
0.000062
0.004116
0.008170
0.008170
0.012225
0.020334
0.028442
0.040606
0.048714
0.048714
0.052769
0.036551
0.028442
0.016279
0.004116
-0.003993
-0.012102
-0.003993
0.004116
0.000062
-0.003993
-0.008047
-0.008047
0.004116
0.004116
0.004116
0.044660
0.105476
0.162237
0.125748
0.085204
-0.081026
-0.283746
-0.226985
-0.076972
-0.113462
-0.109407
-0.040482
-0.003993
-0.003993
-0.003993
0.000062
0.012225
0.008170
0.012225
0.008170
0.004116
0.000062
-0.003993
-0.016156
-0.016156
-0.028319
-0.024265
-0.028319
-0.024265
-0.016156
-0.008047
-0.008047
-0.012102
0.000062
0.012225
0.004116
0.020334
0.036551
0.044660
0.048714
0.036551
0.024388
0.004116
0.004116
-0.008047
-0.012102
-0.012102
-0.008047
-0.008047
-0.016156
-0.008047
0.000062
0.000062
0.004116
0.004116
0.024388
0.036551
0.048714
0.036551
0.040606
0.032497
0.028442
0.024388
0.016279
0.012225
0.004116
-0.003993
-0.016156
-0.024265
-0.024265
-0.024265
-0.028319
-0.020210
-0.016156
-0.008047
0.004116
0.012225
0.016279
0.024388
0.024388
0.012225
0.012225
0.000062
-0.003993
-0.003993
-0.020210
-0.024265
0.048714
0.146020
0.198727
0.133857
0.016279
-0.206713
-0.348617
-0.226985
-0.109407
-0.117516
-0.068863
0.000062
0.016279
0.012225
0.020334
0.008170
-0.003993
-0.016156
-0.016156
-0.024265
-0.028319
-0.032374
-0.028319
-0.032374
-0.003993
-0.003993
0.012225
0.016279
0.012225
0.020334
0.024388
0.024388
0.024388
0.008170
0.012225
0.000062
-0.008047
-0.003993
0.004116
0.020334
0.036551
0.040606
0.044660
0.040606
0.028442
0.016279
0.012225
0.012225
0.020334
0.024388
0.024388
0.012225
0.000062
0.004116
-0.008047
-0.008047
-0.003993
0.000062
0.012225
0.012225
0.032497
0.036551
0.032497
0.036551
0.036551
0.024388
0.020334
0.020334
0.028442
0.020334
0.016279
-0.003993
-0.008047
-0.008047
-0.008047
-0.008047
-0.012102
-0.012102
-0.008047
0.044660
0.129802
0.218999
0.198727
0.133857
-0.044537
-0.275637
-0.251311
-0.085081
-0.093190
-0.121570
-0.048591
-0.024265
-0.020210
-0.020210
-0.012102
0.000062
0.004116
-0.012102
-0.016156
-0.008047
-0.012102
-0.012102
-0.008047
-0.003993
-0.008047
-0.003993
-0.003993
0.000062
0.000062
-0.003993
-0.008047
-0.012102
-0.008047
-0.008047
-0.012102
0.000062
0.008170
0.012225
0.032497
0.032497
0.036551
0.036551
0.032497
0.020334
0.024388
0.020334
0.020334
0.020334
0.000062
-0.008047
-0.008047
-0.012102
-0.003993
0.012225
0.012225
0.012225
0.000062
-0.003993
-0.003993
0.012225
0.020334
0.020334
0.020334
0.020334
0.024388
0.008170
-0.003993
-0.008047
-0.012102
-0.012102
-0.008047
-0.012102
-0.008047
0.040606
0.097367
0.113585
0.081150
0.000062
-0.194550
-0.251311
-0.076972
-0.048591
-0.101298
-0.044537
0.008170
0.012225
0.004116
0.004116
-0.012102
0.000062
-0.016156
-0.020210
-0.028319
-0.024265
-0.024265
-0.012102
-0.012102
-0.003993
0.000062
0.008170
0.020334
0.028442
0.020334
0.004116
0.000062
-0.003993
-0.008047
-0.008047
-0.012102
-0.012102
-0.012102
0.004116
0.020334
0.032497
0.032497
0.032497
0.036551
0.040606
0.044660
0.040606
0.040606
0.032497
0.032497
0.024388
0.016279
0.016279
0.012225
-0.012102
-0.003993
-0.003993
0.000062
-0.003993
0.004116
0.000062
0.008170
0.036551
0.040606
0.048714
0.060878
0.036551
0.032497
0.044660
0.121693
0.174401
0.125748
0.040606
-0.105353
-0.275637
-0.255365
-0.068863
-0.089135
-0.137788
-0.072918
-0.036428
-0.028319
-0.008047
0.016279
0.016279
0.028442
0.016279
0.020334
0.008170
-0.003993
-0.016156
0.000062
-0.003993
0.004116
0.004116
0.008170
0.000062
-0.012102
-0.003993
-0.003993
-0.012102
-0.020210
-0.020210
-0.024265
-0.028319
-0.020210
-0.008047
0.000062
0.016279
0.024388
0.024388
0.024388
0.028442
0.020334
0.012225
0.012225
0.020334
0.020334
0.020334
0.012225
0.004116
-0.003993
-0.016156
-0.012102
-0.008047
-0.003993
-0.003993
0.004116
0.016279
0.020334
0.032497
0.032497
0.024388
0.028442
0.032497
0.032497
0.028442
0.028442
0.016279
0.000062
-0.008047
-0.016156
-0.012102
-0.008047
-0.012102
-0.003993
0.044660
0.150074
0.218999
0.174401
0.105476
-0.093190
-0.308073
-0.235093
-0.109407
-0.117516
-0.121570
-0.044537
-0.020210
-0.008047
-0.008047
0.000062
0.020334
0.020334
0.016279
0.008170
0.000062
0.004116
-0.003993
-0.012102
-0.003993
-0.008047
-0.012102
0.000062
-0.003993
-0.012102
-0.024265
-0.020210
-0.012102
0.000062
0.004116
-0.016156
-0.003993
0.000062
0.012225
0.028442
0.036551
0.032497
0.032497
0.024388
0.020334
0.008170
0.000062
0.000062
-0.003993
0.000062
0.004116
0.012225
0.012225
0.004116
0.000062
0.000062
-0.003993
0.008170
0.012225
0.012225
0.016279
0.020334
0.016279
0.012225
0.012225
0.020334
0.020334
0.020334
0.012225
0.036551
0.113585
0.166292
0.121693
0.052769
-0.101298
-0.287801
-0.247257
-0.076972
-0.109407
-0.109407
-0.040482
-0.024265
-0.024265
-0.020210
-0.012102
-0.008047
0.000062
-0.003993
-0.003993
0.000062
0.012225
0.020334
0.024388
0.024388
0.012225
-0.003993
-0.008047
-0.016156
-0.008047
-0.012102
-0.012102
-0.012102
-0.020210
-0.012102
-0.016156
-0.012102
-0.003993
0.008170
0.028442
0.040606
0.052769
0.064932
0.060878
0.048714
0.032497
0.028442
0.016279
0.012225
0.012225
0.012225
0.008170
0.008170
0.000062
-0.003993
-0.008047
-0.003993
0.004116
0.008170
0.016279
0.024388
0.020334
0.028442
0.020334
0.008170
0.004116
0.008170
-0.003993
0.008170
0.004116
0.004116
0.012225
0.004116
-0.008047
-0.012102
-0.008047
0.008170
0.000062
0.000062
-0.012102
-0.012102
-0.008047
-0.003993
-0.008047
-0.012102
-0.012102
-0.008047
-0.003993
0.004116
0.004116
0.085204
0.174401
0.202781
0.146020
0.040606
-0.145897
-0.271583
-0.170223
-0.113462
-0.141842
-0.093190
-0.040482
-0.024265
-0.016156
-0.003993
-0.003993
0.000062
-0.003993
0.004116
0.000062
-0.003993
-0.024265
-0.028319
-0.012102
-0.003993
0.004116
0.008170
0.004116
0.000062
-0.008047
-0.012102
-0.020210
-0.020210
-0.016156
-0.008047
0.000062
0.012225
0.028442
0.044660
0.048714
0.044660
0.044660
0.036551
0.040606
0.032497
0.004116
0.008170
0.008170
0.000062
-0.003993
0.004116
0.012225
0.020334
0.016279
0.016279
0.024388
0.024388
0.028442
0.020334
0.024388
0.036551
0.040606
0.040606
0.036551
0.024388
0.016279
0.012225
0.008170
0.008170
0.044660
0.117639
0.154129
0.081150
-0.032374
-0.170223
-0.308073
-0.166169
-0.048591
-0.109407
-0.076972
-0.008047
0.004116
0.008170
0.032497
0.020334
0.016279
0.008170
-0.003993
-0.003993
-0.016156
-0.016156
-0.003993
-0.003993
-0.003993
-0.016156
-0.020210
-0.024265
-0.024265
-0.003993
-0.003993
0.008170
0.020334
0.024388
0.024388
0.024388
0.012225
0.028442
0.028442
0.036551
0.032497
0.024388
0.032497
0.016279
0.012225
0.004116
-0.016156
-0.016156
-0.008047
0.000062
0.024388
0.028442
0.032497
0.040606
0.036551
0.036551
0.024388
0.024388
0.028442
0.028442
0.020334
0.024388
0.012225
0.012225
0.008170
0.008170
-0.003993
-0.008047
-0.020210
-0.016156
-0.008047
-0.016156
-0.008047
-0.008047
-0.003993
-0.008047
-0.008047
0.008170
0.000062
0.008170
0.004116
0.012225
0.012225
0.000062
0.004116
0.000062
-0.016156
-0.032374
-0.020210
-0.024265
-0.024265
-0.020210
-0.028319
-0.020210
-0.016156
-0.016156
-0.016156
-0.012102
-0.012102
-0.012102
-0.012102
0.000062
0.000062
0.004116
0.000062
0.000062
0.000062
-0.003993
-0.012102
0.000062
0.089258
0.174401
0.186564
0.141965
-0.003993
-0.235093
-0.332399
-0.202658
-0.133734
-0.129679
-0.052646
-0.012102
-0.003993
0.004116
0.012225
0.004116
-0.003993
-0.008047
-0.020210
-0.016156
-0.020210
-0.024265
-0.024265
-0.016156
-0.012102
0.000062
0.008170
0.008170
0.008170
0.008170
0.004116
0.008170
0.004116
-0.008047
-0.012102
-0.024265
-0.003993
0.004116
0.012225
0.020334
0.040606
0.048714
0.040606
0.048714
0.036551
0.032497
0.028442
0.012225
0.008170
0.004116
0.008170
0.004116
0.000062
-0.008047
-0.016156
-0.032374
-0.036428
-0.028319
0.008170
0.040606
0.052769
0.060878
0.048714
0.048714
0.048714
0.044660
0.040606
0.032497
0.024388
0.020334
0.020334
0.020334
0.008170
0.004116
-0.012102
-0.008047
-0.008047
-0.012102
-0.016156
-0.003993
-0.012102
-0.003993
-0.012102
0.004116
0.028442
0.113585
0.202781
0.218999
0.162237
0.016279
-0.190495
-0.251311
-0.121570
-0.085081
-0.137788
-0.089135
-0.040482
-0.024265
-0.020210
-0.012102
-0.012102
-0.012102
-0.016156
-0.016156
-0.012102
0.000062
-0.003993
0.000062
0.004116
-0.003993
-0.008047
-0.012102
-0.016156
-0.020210
-0.012102
-0.003993
0.008170
0.004116
0.004116
0.000062
0.008170
0.020334
0.032497
0.032497
0.044660
0.044660
0.016279
0.020334
0.008170
-0.012102
-0.016156
-0.016156
-0.008047
0.004116
0.004116
0.008170
0.008170
0.024388
0.020334
0.028442
0.016279
0.012225
0.008170
-0.003993
-0.012102
-0.012102
-0.012102
0.000062
0.000062
0.000062
0.012225
0.016279
0.020334
0.020334
0.024388
0.028442
0.016279
0.016279
0.020334
0.024388
0.008170
0.004116
-0.008047
0.008170
0.105476
0.194673
0.170346
0.141965
-0.016156
-0.243202
-0.214821
-0.093190
-0.137788
-0.166169
-0.089135
-0.048591
-0.032374
-0.024265
-0.016156
-0.020210
-0.016156
-0.012102
0.000062
0.000062
0.012225
0.024388
0.020334
0.000062
-0.012102
-0.024265
-0.028319
-0.032374
-0.024265
-0.024265
-0.020210
-0.016156
-0.020210
-0.016156
0.000062
0.012225
0.028442
0.032497
0.048714
0.056823
0.064932
0.052769
0.032497
0.012225
0.008170
-0.003993
0.000062
-0.008047
-0.016156
-0.008047
-0.012102
-0.016156
-0.003993
0.004116
0.004116
0.020334
0.032497
0.040606
0.044660
0.044660
0.040606
0.028442
0.028442
0.016279
0.004116
-0.008047
-0.012102
-0.012102
-0.003993
-0.003993
-0.008047
0.000062
0.004116
-0.003993
0.004116
0.008170
0.012225
0.008170
0.004116
0.008170
0.000062
-0.003993
-0.016156
-0.024265
-0.024265
-0.020210
-0.016156
-0.008047
-0.008047
0.004116
0.004116
0.000062
-0.003993
-0.008047
-0.016156
-0.016156
-0.008047
-0.012102
-0.020210
-0.003993
-0.008047
-0.003993
-0.003993
0.004116
0.004116
0.008170
0.004116
0.008170
0.008170
0.008170
0.004116
-0.016156
-0.008047
-0.003993
-0.012102
-0.008047
-0.008047
-0.008047
0.036551
0.129802
0.210890
0.190618
0.129802
-0.076972
-0.291855
-0.299964
-0.145897
-0.133734
-0.085081
-0.032374
-0.016156
-0.008047
-0.003993
0.008170
-0.008047
-0.008047
-0.012102
0.008170
0.008170
0.012225
0.016279
0.012225
0.008170
0.028442
0.028442
0.020334
0.004116
0.000062
0.004116
0.000062
-0.012102
-0.012102
-0.016156
-0.012102
-0.024265
-0.008047
0.004116
0.024388
0.044660
0.068986
0.073041
0.068986
0.048714
0.028442
0.016279
0.008170
-0.003993
-0.012102
-0.003993
0.000062
-0.008047
-0.020210
-0.020210
0.000062
0.004116
0.016279
0.032497
0.032497
0.036551
0.040606
0.032497
0.040606
0.032497
0.028442
0.016279
0.016279
0.012225
-0.008047
-0.016156
-0.012102
-0.003993
-0.003993
-0.008047
-0.003993
-0.016156
-0.003993
-0.008047
0.000062
0.004116
0.012225
0.004116
0.012225
0.004116
0.000062
0.016279
0.101422
0.194673
0.186564
0.125748
-0.056700
-0.308073
-0.324290
-0.154006
-0.117516
-0.117516
-0.036428
0.008170
0.020334
0.020334
0.000062
-0.003993
-0.008047
-0.008047
-0.012102
-0.020210
-0.024265
-0.020210
-0.016156
-0.028319
-0.016156
0.000062
0.012225
0.012225
0.024388
0.020334
0.016279
0.008170
0.012225
0.012225
0.016279
0.020334
0.008170
0.024388
0.032497
0.024388
0.032497
0.036551
0.028442
0.024388
0.016279
0.028442
0.004116
0.000062
-0.008047
0.000062
-0.003993
-0.003993
0.000062
0.000062
0.000062
-0.003993
-0.012102
-0.003993
0.000062
-0.003993
0.008170
0.020334
0.024388
0.032497
0.024388
0.016279
0.016279
0.012225
0.008170
0.012225
0.000062
-0.003993
-0.008047
-0.008047
-0.012102
-0.012102
-0.008047
-0.020210
-0.012102
-0.016156
0.000062
-0.003993
0.000062
0.008170
-0.003993
0.004116
0.004116
0.004116
0.000062
-0.008047
-0.003993
-0.012102
-0.016156
-0.020210
-0.028319
-0.032374
-0.028319
-0.003993
-0.008047
-0.008047
-0.003993
-0.012102
-0.016156
0.000062
0.064932
0.170346
0.243325
0.206836
0.125748
-0.060754
-0.243202
-0.214821
-0.141842
-0.149951
-0.101298
-0.032374
-0.008047
-0.003993
-0.008047
-0.003993
0.000062
0.004116
0.008170
0.016279
0.016279
0.008170
0.012225
0.012225
0.016279
0.012225
0.000062
0.000062
0.004116
0.008170
0.000062
0.000062
-0.003993
-0.003993
0.000062
-0.012102
0.000062
0.008170
0.012225
0.032497
0.044660
0.048714
0.044660
0.040606
0.032497
0.036551
0.012225
0.020334
-0.003993
0.004116
0.000062
-0.003993
0.000062
-0.003993
0.004116
0.004116
0.008170
0.024388
0.028442
0.032497
0.040606
0.036551
0.040606
0.040606
0.032497
0.004116
0.004116
0.004116
0.012225
-0.003993
0.004116
0.000062
0.008170
0.008170
0.012225
0.008170
0.004116
0.004116
-0.008047
-0.016156
-0.012102
-0.003993
-0.020210
-0.028319
-0.028319
-0.032374
-0.040482
-0.036428
-0.036428
-0.028319
-0.016156
-0.008047
0.000062
-0.012102
-0.008047
0.000062
0.012225
0.012225
0.008170
0.008170
0.004116
-0.008047
-0.012102
-0.012102
-0.032374
-0.036428
-0.040482
-0.036428
-0.028319
-0.024265
-0.020210
0.008170
0.117639
0.214945
0.227108
0.182509
0.016279
-0.231039
-0.304018
-0.174278
-0.154006
-0.141842
-0.081026
-0.048591
-0.036428
-0.036428
-0.028319
-0.020210
-0.012102
0.008170
0.012225
0.024388
0.016279
0.012225
0.000062
-0.003993
-0.012102
-0.016156
-0.003993
-0.012102
-0.016156
-0.008047
-0.003993
0.008170
0.020334
0.028442
0.040606
0.040606
0.048714
0.048714
0.036551
0.032497
0.032497
0.024388
0.020334
0.008170
0.000062
-0.008047
-0.003993
-0.008047
0.012225
0.028442
0.032497
0.032497
0.032497
0.032497
0.020334
0.028442
0.024388
0.016279
0.000062
0.000062
-0.008047
0.000062
0.008170
0.016279
0.020334
0.028442
0.032497
0.028442
0.024388
0.024388
0.024388
0.016279
0.036551
0.093313
0.158183
0.125748
0.073041
-0.089135
-0.295909
-0.283746
-0.093190
-0.097244
-0.105353
-0.024265
0.000062
-0.003993
0.004116
0.004116
0.008170
0.000062
0.004116
0.000062
0.004116
-0.008047
0.004116
0.000062
-0.003993
-0.008047
0.000062
-0.008047
-0.012102
-0.008047
-0.008047
-0.012102
-0.012102
0.000062
0.008170
0.012225
0.000062
0.008170
0.016279
0.024388
0.036551
0.028442
0.024388
0.024388
0.008170
0.004116
0.004116
0.012225
0.004116
0.000062
0.008170
0.016279
0.020334
0.028442
0.024388
0.020334
0.016279
0.020334
0.016279
0.012225
0.004116
0.000062
0.004116
0.000062
0.008170
0.016279
0.000062
0.012225
0.012225
0.016279
0.024388
0.016279
0.008170
0.008170
0.008170
0.004116
0.004116
-0.003993
-0.012102
-0.016156
-0.016156
-0.020210
-0.012102
0.000062
0.008170
-0.003993
0.000062
0.012225
0.117639
0.218999
0.235217
0.158183
-0.008047
-0.255365
-0.324290
-0.202658
-0.145897
-0.141842
-0.081026
-0.040482
-0.024265
-0.020210
-0.016156
-0.012102
-0.008047
0.000062
0.004116
0.008170
0.024388
0.024388
0.012225
0.008170
0.004116
-0.008047
-0.003993
-0.012102
-0.020210
-0.020210
-0.016156
-0.003993
0.012225
0.024388
0.024388
0.036551
0.036551
0.032497
0.040606
0.048714
0.060878
0.048714
0.036551
0.020334
0.008170
-0.008047
-0.016156
-0.012102
-0.016156
-0.003993
0.004116
0.008170
0.012225
0.020334
0.008170
0.004116
0.008170
0.016279
0.008170
0.008170
0.004116
-0.008047
-0.008047
-0.016156
-0.020210
-0.008047
-0.012102
-0.008047
0.004116
0.008170
0.000062
0.008170
0.020334
0.020334
0.016279
0.008170
-0.012102
-0.016156
-0.020210
-0.028319
-0.036428
-0.044537
-0.040482
-0.040482
-0.036428
-0.024265
0.052769
0.166292
0.231162
0.186564
0.085204
-0.125625
-0.304018
-0.235093
-0.109407
-0.113462
-0.085081
-0.032374
-0.016156
-0.016156
-0.020210
-0.024265
-0.020210
-0.012102
-0.003993
0.008170
0.016279
0.024388
0.024388
0.024388
0.032497
0.020334
0.020334
0.016279
0.016279
0.020334
0.000062
0.004116
-0.003993
0.012225
0.016279
0.024388
0.024388
0.036551
0.052769
0.060878
0.068986
0.060878
0.052769
0.052769
0.032497
0.024388
0.016279
0.000062
-0.003993
-0.003993
0.004116
0.008170
0.012225
0.016279
0.036551
0.028442
0.024388
0.024388
0.028442
0.024388
0.036551
0.024388
0.020334
0.008170
0.000062
-0.008047
-0.008047
-0.003993
0.008170
0.028442
0.040606
0.032497
0.028442
0.024388
0.024388
0.016279
0.008170
0.008170
0.012225
-0.008047
-0.020210
0.000062
0.000062
-0.016156
-0.016156
-0.012102
-0.024265
-0.028319
-0.020210
0.008170
0.012225
0.000062
0.004116
0.004116
0.004116
0.000062
0.008170
-0.008047
-0.012102
-0.008047
-0.012102
-0.016156
-0.016156
0.000062
-0.020210
-0.012102
-0.012102
-0.008047
0.000062
0.000062
0.004116
0.000062
-0.012102
-0.020210
-0.012102
-0.012102
-0.028319
-0.016156
-0.028319
-0.032374
-0.008047
-0.003993
0.004116
0.012225
-0.003993
0.008170
0.008170
0.081150
0.162237
0.202781
0.150074
0.089258
-0.060754
-0.214821
-0.158060
-0.137788
-0.162114
-0.113462
-0.040482
-0.024265
-0.020210
-0.020210
-0.024265
-0.032374
-0.020210
-0.016156
-0.008047
-0.020210
-0.020210
-0.008047
-0.016156
-0.012102
-0.008047
-0.008047
0.000062
0.000062
0.016279
0.004116
-0.008047
-0.012102
-0.012102
-0.012102
-0.012102
-0.008047
0.004116
0.016279
0.020334
0.020334
0.024388
0.020334
0.028442
0.020334
0.028442
0.012225
-0.008047
-0.020210
-0.040482
-0.044537
-0.036428
-0.032374
-0.024265
-0.012102
-0.008047
-0.008047
0.000062
0.012225
0.016279
0.012225
0.016279
0.020334
0.016279
0.004116
-0.012102
-0.012102
-0.016156
-0.012102
-0.012102
-0.012102
-0.003993
0.000062
0.000062
-0.012102
-0.012102
-0.003993
0.004116
-0.008047
-0.003993
-0.003993
-0.008047
-0.008047
-0.028319
-0.020210
-0.028319
-0.016156
-0.016156
-0.020210
-0.020210
0.028442
0.146020
0.235217
0.214945
0.146020
-0.008047
-0.263474
-0.251311
-0.125625
-0.133734
-0.113462
-0.044537
-0.016156
-0.008047
0.008170
0.004116
0.004116
0.000062
0.008170
0.024388
0.008170
0.004116
0.004116
0.008170
0.000062
0.004116
0.000062
0.004116
0.004116
0.012225
0.012225
0.016279
0.024388
0.036551
0.040606
0.044660
0.060878
0.064932
0.060878
0.056823
0.048714
0.052769
0.056823
0.048714
0.032497
0.024388
0.024388
0.024388
0.016279
0.016279
0.016279
0.008170
0.020334
0.012225
0.012225
0.020334
0.016279
0.012225
0.008170
0.008170
0.012225
0.012225
0.008170
0.008170
0.008170
0.008170
0.012225
0.012225
0.008170
0.004116
-0.008047
-0.012102
0.000062
0.004116
0.000062
0.012225
0.073041
0.141965
0.170346
0.146020
0.056823
-0.162114
-0.271583
-0.125625
-0.105353
-0.141842
-0.072918
-0.020210
-0.003993
-0.008047
-0.012102
-0.008047
0.004116
0.004116
0.016279
0.036551
0.040606
0.044660
0.044660
0.032497
0.020334
-0.012102
-0.012102
-0.012102
-0.028319
-0.020210
-0.028319
-0.020210
-0.012102
-0.016156
-0.003993
0.012225
0.044660
0.068986
0.077095
0.085204
0.089258
0.068986
0.052769
0.040606
0.028442
0.012225
-0.003993
-0.016156
-0.012102
-0.012102
-0.012102
0.008170
0.008170
0.028442
0.032497
0.040606
0.036551
0.028442
0.016279
0.020334
0.016279
0.016279
0.012225
0.004116
-0.003993
-0.012102
-0.016156
0.000062
0.004116
0.004116
0.008170
-0.003993
0.004116
0.004116
0.012225
0.004116
0.008170
0.068986
0.137911
0.166292
0.154129
0.036551
-0.190495
-0.299964
-0.154006
-0.125625
-0.145897
-0.072918
-0.016156
-0.003993
-0.003993
-0.008047
-0.012102
0.000062
-0.012102
-0.012102
-0.003993
-0.012102
0.004116
-0.003993
-0.016156
-0.012102
-0.016156
-0.016156
-0.020210
-0.020210
-0.020210
-0.008047
-0.016156
-0.008047
0.004116
-0.012102
-0.036428
-0.028319
-0.016156
-0.003993
0.008170
-0.003993
0.020334
0.024388
0.016279
0.012225
0.008170
-0.003993
0.000062
0.000062
0.008170
-0.003993
-0.008047
-0.012102
-0.028319
-0.032374
-0.036428
-0.036428
-0.032374
-0.032374
-0.016156
-0.008047
-0.008047
-0.012102
-0.003993
0.000062
-0.012102
-0.024265
-0.003993
0.008170
-0.016156
-0.024265
-0.036428
-0.036428
-0.040482
-0.044537
-0.048591
-0.048591
-0.040482
-0.040482
-0.028319
-0.016156
-0.016156
-0.016156
0.032497
0.133857
0.214945
0.194673
0.133857
-0.068863
-0.320236
-0.328345
-0.170223
-0.166169
-0.145897
-0.076972
-0.020210
-0.012102
-0.008047
0.000062
0.004116
0.016279
0.024388
0.028442
0.024388
0.016279
0.008170
0.004116
0.016279
0.012225
0.008170
0.000062
0.000062
0.004116
0.012225
0.016279
0.024388
0.024388
0.024388
0.036551
0.032497
0.048714
0.056823
0.052769
0.056823
0.068986
0.052769
0.060878
0.040606
0.040606
0.032497
0.032497
0.032497
0.036551
0.032497
0.024388
0.020334
0.028442
0.036551
0.024388
0.028442
0.032497
0.028442
0.032497
0.024388
0.020334
0.020334
0.024388
0.028442
0.028442
0.028442
0.020334
0.032497
0.032497
0.044660
0.040606
0.040606
0.028442
0.016279
0.008170
0.012225
0.012225
0.004116
0.000062
-0.016156
-0.016156
-0.020210
-0.024265
-0.020210
0.000062
0.000062
0.012225
0.016279
0.024388
0.016279
0.012225
0.000062
0.000062
-0.003993
-0.003993
-0.012102
-0.020210
-0.024265
-0.036428
-0.040482
-0.048591
-0.036428
-0.016156
-0.008047
0.000062
0.008170
0.016279
0.004116
0.004116
-0.003993
0.044660
0.133857
0.198727
0.166292
0.121693
-0.044537
-0.259420
-0.222930
-0.125625
-0.121570
-0.097244
-0.024265
0.008170
0.012225
0.004116
0.000062
0.000062
0.000062
-0.003993
-0.012102
-0.016156
-0.020210
-0.024265
-0.028319
-0.020210
-0.008047
0.008170
0.020334
0.020334
0.028442
0.028442
0.020334
0.020334
0.008170
-0.003993
-0.008047
-0.008047
-0.008047
0.000062
0.004116
0.016279
0.028442
0.032497
0.032497
0.028442
0.036551
0.048714
0.044660
0.036551
0.032497
0.020334
0.008170
-0.003993
-0.016156
-0.016156
0.000062
-0.008047
-0.008047
0.004116
0.004116
0.016279
0.020334
0.036551
0.113585
0.223053
0.279815
0.267652
0.105476
-0.072918
-0.206713
-0.109407
-0.105353
-0.089135
-0.052646
-0.016156
-0.020210
-0.024265
-0.020210
-0.020210
-0.003993
0.004116
0.000062
0.000062
0.000062
-0.003993
-0.016156
-0.024265
-0.032374
-0.044537
-0.052646
-0.060754
-0.064809
-0.060754
-0.044537
-0.044537
-0.044537
-0.044537
-0.032374
-0.028319
-0.024265
-0.012102
-0.012102
0.016279
0.012225
0.008170
0.012225
0.008170
-0.003993
-0.016156
-0.028319
-0.020210
-0.024265
-0.012102
-0.012102
-0.024265
-0.016156
-0.008047
-0.020210
-0.020210
-0.020210
-0.016156
-0.012102
-0.012102
-0.016156
-0.016156
-0.012102
-0.012102
-0.012102
-0.003993
0.000062
0.000062
-0.012102
-0.028319
-0.040482
-0.036428
-0.036428
-0.028319
-0.032374
-0.036428
-0.040482
-0.040482
-0.040482
-0.036428
-0.028319
-0.020210
-0.016156
-0.024265
-0.024265
-0.020210
-0.024265
-0.024265
-0.028319
-0.016156
-0.020210
-0.028319
-0.032374
-0.028319
-0.028319
-0.020210
-0.012102
-0.012102
0.008170
0.109530
0.202781
0.243325
0.190618
0.056823
-0.170223
-0.287801
-0.178332
-0.117516
-0.101298
-0.044537
-0.008047
0.008170
0.012225
0.004116
0.004116
0.016279
0.012225
0.028442
0.032497
0.012225
0.016279
0.024388
0.020334
0.020334
0.020334
0.020334
0.028442
0.028442
0.028442
0.032497
0.032497
0.044660
0.032497
0.028442
0.020334
0.020334
0.020334
0.036551
0.044660
0.048714
0.060878
0.052769
0.040606
0.028442
0.024388
0.012225
0.012225
0.020334
0.016279
0.024388
0.020334
0.012225
0.000062
0.000062
-0.012102
0.020334
0.012225
0.024388
0.028442
0.036551
0.056823
0.052769
0.060878
0.040606
0.032497
0.020334
0.024388
0.016279
0.028442
0.012225
0.012225
-0.003993
0.004116
-0.016156
-0.012102
-0.016156
-0.012102
-0.008047
-0.016156
-0.003993
0.024388
0.097367
0.190618
0.214945
0.146020
0.056823
-0.125625
-0.198604
-0.093190
-0.085081
-0.129679
-0.085081
-0.024265
-0.020210
-0.024265
-0.032374
-0.036428
-0.016156
-0.012102
-0.003993
0.000062
-0.016156
-0.003993
-0.012102
-0.003993
-0.003993
-0.003993
-0.003993
0.000062
-0.008047
-0.003993
-0.008047
-0.020210
-0.016156
0.000062
0.024388
0.044660
0.056823
0.048714
0.056823
0.068986
0.064932
0.060878
0.048714
0.032497
0.032497
0.020334
0.020334
0.008170
0.000062
-0.012102
0.000062
0.012225
0.032497
0.044660
0.036551
0.020334
0.020334
0.016279
0.024388
0.008170
0.012225
0.012225
0.016279
0.008170
0.016279
0.012225
0.008170
0.000062
0.016279
0.028442
0.028442
0.024388
0.020334
0.012225
0.024388
0.016279
0.012225
0.004116
-0.008047
-0.012102
-0.012102
-0.008047
-0.003993
-0.012102
-0.016156
-0.020210
-0.008047
0.008170
0.004116
-0.003993
-0.016156
-0.032374
-0.028319
-0.036428
-0.044537
-0.048591
-0.024265
-0.020210
-0.012102
0.004116
0.008170
0.004116
0.008170
-0.003993
0.000062
0.008170
0.004116
-0.008047
0.000062
-0.008047
-0.020210
-0.032374
-0.048591
-0.068863
-0.076972
-0.076972
-0.064809
-0.040482
-0.024265
0.000062
0.012225
0.004116
0.004116
0.000062
0.000062
-0.008047
0.004116
-0.003993
-0.003993
-0.012102
0.052769
0.141965
0.202781
0.194673
0.129802
-0.109407
-0.348617
-0.352671
-0.202658
-0.154006
-0.076972
-0.024265
-0.003993
0.000062
0.004116
0.004116
0.004116
-0.003993
-0.020210
-0.020210
-0.020210
-0.028319
-0.032374
-0.020210
-0.008047
-0.008047
0.004116
0.016279
0.020334
0.024388
0.028442
0.016279
0.016279
0.008170
0.000062
0.000062
0.008170
0.004116
0.012225
0.016279
0.012225
-0.016156
0.000062
0.012225
0.016279
0.008170
-0.003993
0.012225
0.004116
0.008170
0.000062
0.000062
-0.003993
-0.003993
-0.016156
-0.016156
-0.016156
-0.016156
-0.032374
-0.036428
-0.040482
-0.020210
-0.016156
0.008170
0.016279
0.004116
0.004116
0.101422
0.231162
0.283869
0.202781
0.000062
-0.186441
-0.214821
-0.072918
-0.076972
-0.117516
-0.068863
-0.052646
-0.060754
-0.048591
-0.040482
-0.040482
-0.032374
-0.036428
-0.040482
-0.028319
-0.028319
-0.020210
-0.016156
-0.024265
-0.012102
-0.012102
-0.012102
-0.024265
-0.040482
-0.032374
-0.024265
-0.040482
-0.060754
-0.085081
-0.072918
-0.056700
-0.040482
-0.032374
-0.024265
0.004116
0.016279
0.040606
0.044660
0.044660
0.032497
0.036551
0.024388
0.028442
0.040606
0.036551
0.032497
0.012225
0.004116
-0.012102
-0.012102
0.004116
0.012225
0.024388
0.036551
0.040606
0.052769
0.060878
0.044660
0.060878
0.056823
0.036551
0.040606
0.052769
0.036551
0.024388
0.012225
0.004116
0.004116
0.016279
0.020334
0.024388
0.032497
0.032497
0.036551
0.020334
0.032497
0.020334
0.004116
0.008170
0.008170
0.000062
0.000062
0.004116
-0.008047
-0.016156
-0.012102
-0.008047
0.008170
0.000062
0.012225
0.016279
0.012225
0.020334
0.000062
0.016279
0.012225
0.000062
0.000062
0.008170
0.000062
0.032497
0.137911
0.223053
0.194673
0.150074
-0.008047
-0.178332
-0.182386
-0.085081
-0.109407
-0.093190
-0.024265
-0.008047
0.012225
0.000062
0.004116
-0.008047
-0.008047
-0.012102
0.004116
-0.016156
-0.020210
-0.008047
-0.016156
-0.008047
-0.008047
-0.016156
-0.012102
0.000062
0.000062
0.004116
0.004116
0.004116
0.004116
0.004116
0.008170
-0.008047
-0.008047
-0.003993
-0.003993
0.008170
0.008170
0.020334
0.020334
0.016279
0.016279
0.016279
0.012225
0.016279
0.012225
0.012225
0.000062
0.000062
-0.012102
-0.012102
-0.008047
-0.008047
-0.008047
0.000062
0.008170
0.020334
0.028442
0.028442
0.036551
0.040606
0.048714
0.044660
0.028442
0.020334
0.004116
0.000062
0.008170
0.004116
-0.008047
-0.003993
-0.020210
-0.016156
-0.012102
-0.012102
0.004116
0.008170
0.020334
0.016279
0.004116
0.008170
0.048714
0.150074
0.218999
0.194673
0.109530
-0.105353
-0.356725
-0.344562
-0.182386
-0.162114
-0.105353
-0.028319
0.004116
0.020334
0.012225
0.008170
0.008170
0.012225
0.012225
0.004116
0.016279
0.008170
0.008170
0.012225
0.008170
-0.003993
-0.003993
0.012225
0.004116
0.012225
0.020334
0.040606
0.020334
0.024388
0.004116
0.008170
0.016279
0.012225
0.036551
0.036551
0.036551
0.032497
0.028442
0.028442
0.012225
0.008170
0.004116
0.012225
0.000062
-0.020210
-0.016156
-0.020210
-0.032374
-0.020210
-0.024265
-0.012102
-0.016156
0.004116
0.000062
0.012225
0.008170
0.008170
0.008170
0.008170
0.004116
0.000062
0.000062
-0.003993
-0.008047
-0.020210
-0.028319
-0.024265
-0.028319
-0.016156
-0.020210
-0.020210
-0.008047
0.040606
0.121693
0.210890
0.202781
0.101422
-0.097244
-0.295909
-0.194550
-0.109407
-0.141842
-0.117516
-0.048591
-0.040482
-0.040482
-0.032374
-0.044537
-0.032374
-0.036428
-0.024265
-0.012102
0.000062
0.016279
0.020334
0.020334
0.044660
0.032497
0.008170
0.012225
0.000062
-0.003993
-0.020210
-0.024265
-0.032374
-0.036428
-0.028319
-0.020210
-0.020210
-0.008047
0.008170
0.040606
0.052769
0.064932
0.073041
0.052769
0.032497
0.020334
0.012225
0.000062
-0.003993
-0.003993
-0.012102
-0.020210
-0.008047
-0.008047
-0.016156
-0.003993
0.008170
0.020334
0.032497
0.044660
0.052769
0.056823
0.036551
0.012225
0.008170
-0.003993
-0.012102
-0.012102
-0.016156
0.000062
-0.012102
-0.028319
0.020334
0.141965
0.206836
0.166292
0.044660
-0.105353
-0.316181
-0.243202
-0.072918
-0.085081
-0.105353
-0.036428
-0.032374
-0.040482
-0.028319
-0.024265
-0.012102
-0.016156
-0.016156
-0.012102
-0.024265
-0.012102
-0.003993
0.004116
0.008170
0.004116
-0.008047
-0.008047
-0.020210
-0.024265
-0.028319
-0.036428
-0.024265
-0.032374
-0.024265
-0.028319
-0.020210
-0.016156
0.008170
0.024388
0.040606
0.036551
0.024388
0.012225
0.004116
-0.003993
-0.016156
-0.024265
-0.012102
-0.003993
0.000062
-0.012102
-0.012102
-0.012102
-0.008047
0.008170
0.020334
0.020334
0.036551
0.032497
0.044660
0.032497
0.032497
0.036551
0.032497
0.024388
0.024388
0.028442
0.036551
0.040606
0.040606
0.028442
0.016279
0.016279
0.008170
0.008170
0.012225
0.008170
0.012225
0.016279
0.016279
0.020334
0.101422
0.186564
0.239271
0.202781
0.101422
-0.076972
-0.186441
-0.101298
-0.076972
-0.109407
-0.072918
-0.016156
-0.012102
-0.012102
-0.008047
-0.008047
-0.012102
0.004116
0.004116
0.008170
0.008170
0.012225
0.024388
0.028442
0.028442
0.012225
0.028442
0.028442
0.024388
0.008170
0.016279
0.012225
0.012225
0.004116
0.004116
0.004116
0.012225
0.020334
0.032497
0.040606
0.040606
0.032497
0.036551
0.032497
0.028442
0.036551
0.036551
0.020334
0.020334
0.008170
0.008170
0.004116
0.004116
0.012225
0.004116
0.016279
0.016279
0.000062
-0.008047
-0.020210
-0.003993
0.004116
0.028442
0.028442
0.028442
0.024388
0.032497
0.028442
0.024388
0.004116
0.004116
0.012225
0.004116
0.012225
-0.024265
-0.024265
-0.044537
-0.048591
-0.044537
-0.044537
-0.044537
-0.040482
-0.028319
-0.024265
-0.020210
-0.012102
0.000062
0.000062
0.000062
0.032497
0.158183
0.243325
0.206836
0.141965
0.012225
-0.190495
-0.243202
-0.149951
-0.178332
-0.194550
-0.117516
-0.064809
-0.036428
-0.032374
-0.020210
-0.012102
-0.003993
0.000062
0.004116
0.024388
-0.003993
0.000062
-0.012102
-0.008047
-0.016156
-0.024265
-0.028319
-0.032374
-0.032374
-0.024265
-0.024265
-0.020210
-0.003993
0.012225
0.024388
0.036551
0.040606
0.044660
0.040606
0.040606
0.032497
0.028442
0.028442
0.008170
0.008170
0.000062
0.008170
0.004116
0.000062
-0.003993
0.000062
0.012225
0.020334
0.024388
0.028442
0.020334
0.020334
0.020334
0.028442
0.012225
0.004116
0.008170
0.089258
0.206836
0.304141
0.308196
0.146020
-0.048591
-0.186441
-0.093190
-0.064809
-0.028319
0.024388
0.028442
0.024388
0.012225
0.032497
0.004116
0.000062
-0.020210
-0.016156
-0.012102
-0.008047
-0.008047
-0.012102
0.000062
0.004116
0.016279
0.016279
0.020334
0.004116
-0.003993
-0.016156
-0.024265
-0.032374
-0.040482
-0.036428
-0.036428
-0.040482
-0.032374
-0.020210
0.004116
0.016279
0.028442
0.032497
0.012225
0.020334
0.020334
0.020334
0.020334
0.024388
0.020334
0.008170
0.012225
0.012225
0.004116
0.000062
0.004116
0.000062
0.004116
-0.003993
0.016279
0.008170
0.016279
0.016279
0.004116
0.000062
-0.003993
-0.020210
-0.003993
-0.003993
0.000062
0.004116
0.000062
-0.008047
-0.008047
-0.012102
-0.024265
-0.032374
-0.032374
-0.020210
-0.028319
-0.036428
-0.020210
-0.036428
-0.044537
-0.028319
-0.032374
-0.024265
-0.016156
-0.003993
-0.003993
-0.024265
0.000062
-0.012102
-0.016156
-0.024265
-0.040482
-0.032374
-0.020210
-0.008047
-0.003993
-0.003993
-0.008047
-0.012102
-0.008047
-0.003993
0.000062
-0.008047
0.000062
0.044660
0.158183
0.247380
0.247380
0.166292
-0.064809
-0.336453
-0.381052
-0.222930
-0.182386
-0.121570
-0.064809
-0.024265
-0.020210
-0.020210
-0.012102
-0.016156
0.004116
-0.003993
0.020334
0.004116
-0.003993
-0.016156
-0.016156
-0.012102
-0.028319
-0.016156
-0.012102
-0.024265
-0.024265
-0.028319
-0.032374
-0.020210
-0.016156
-0.024265
-0.028319
-0.016156
-0.008047
0.000062
0.004116
-0.008047
0.008170
0.012225
0.012225
0.000062
0.004116
-0.003993
-0.012102
-0.012102
-0.028319
-0.040482
-0.036428
-0.036428
-0.040482
-0.032374
-0.024265
-0.024265
-0.008047
0.020334
0.020334
0.020334
0.000062
-0.008047
0.008170
0.008170
0.004116
0.004116
0.000062
0.020334
0.125748
0.239271
0.223053
0.085204
-0.105353
-0.312127
-0.312127
-0.145897
-0.158060
-0.129679
-0.056700
-0.024265
-0.028319
-0.012102
-0.008047
-0.012102
-0.003993
-0.028319
-0.032374
-0.036428
-0.032374
-0.032374
-0.040482
-0.032374
-0.040482
-0.056700
-0.052646
-0.052646
-0.052646
-0.048591
-0.028319
-0.003993
0.004116
0.012225
0.016279
0.012225
0.032497
0.036551
0.048714
0.060878
0.064932
0.068986
0.044660
0.040606
0.028442
0.016279
0.024388
0.024388
0.032497
0.052769
0.064932
0.056823
0.056823
0.040606
0.073041
0.064932
0.064932
0.064932
0.068986
0.064932
0.064932
0.064932
0.048714
0.040606
0.032497
0.024388
0.036551
0.056823
0.064932
0.060878
0.056823
0.032497
0.028442
0.032497
0.024388
0.028442
0.028442
0.020334
0.024388
0.028442
0.020334
0.012225
0.028442
0.020334
0.024388
0.028442
0.028442
0.020334
0.016279
0.012225
0.008170
0.004116
0.008170
0.004116
0.012225
0.012225
0.004116
0.004116
0.020334
0.016279
0.016279
0.016279
0.004116
0.012225
0.000062
0.020334
0.012225
-0.003993
-0.003993
-0.008047
-0.016156
-0.008047
-0.016156
0.040606
0.146020
0.214945
0.170346
0.141965
0.004116
-0.145897
-0.105353
-0.064809
-0.101298
-0.093190
-0.024265
-0.008047
-0.024265
-0.032374
-0.036428
-0.040482
-0.044537
-0.032374
-0.024265
-0.028319
-0.036428
-0.032374
-0.028319
-0.020210
-0.012102
0.000062
0.000062
0.008170
0.012225
0.004116
-0.008047
-0.024265
-0.036428
-0.036428
-0.028319
-0.020210
-0.012102
0.004116
0.024388
0.036551
0.052769
0.064932
0.073041
0.077095
0.068986
0.060878
0.044660
0.024388
0.004116
-0.003993
-0.012102
-0.020210
-0.024265
-0.024265
-0.003993
0.004116
0.008170
0.024388
0.048714
0.068986
0.081150
0.093313
0.093313
0.105476
0.077095
0.048714
0.040606
0.028442
0.012225
0.000062
-0.012102
-0.003993
0.048714
0.117639
0.137911
0.133857
0.008170
-0.194550
-0.235093
-0.044537
-0.024265
-0.028319
0.044660
0.052769
0.044660
0.036551
0.012225
-0.003993
-0.012102
-0.020210
-0.020210
-0.028319
-0.036428
-0.012102
-0.003993
-0.003993
0.016279
0.008170
0.016279
0.024388
0.036551
0.040606
0.028442
0.016279
-0.003993
-0.012102
-0.028319
-0.044537
-0.040482
-0.048591
-0.024265
-0.036428
-0.008047
0.000062
0.020334
-0.008047
0.004116
0.012225
0.016279
0.028442
0.032497
0.020334
0.024388
0.008170
-0.003993
-0.012102
-0.012102
-0.040482
-0.044537
-0.040482
-0.040482
-0.040482
-0.032374
-0.032374
-0.044537
-0.020210
-0.008047
0.008170
0.085204
0.210890
0.275761
0.214945
-0.012102
-0.206713
-0.352671
-0.226985
-0.121570
-0.162114
-0.121570
-0.064809
-0.056700
-0.048591
-0.052646
-0.044537
-0.024265
-0.024265
-0.028319
-0.008047
0.004116
0.008170
0.004116
-0.024265
-0.020210
-0.040482
-0.040482
-0.040482
-0.052646
-0.056700
-0.052646
-0.076972
-0.068863
-0.076972
-0.072918
-0.068863
-0.072918
-0.044537
-0.020210
0.020334
0.032497
0.008170
0.012225
-0.016156
-0.028319
-0.044537
-0.056700
-0.044537
-0.056700
-0.056700
-0.076972
-0.064809
-0.064809
-0.056700
-0.056700
-0.048591
-0.028319
-0.008047
0.008170
0.012225
0.020334
0.012225
0.008170
-0.012102
-0.024265
-0.040482
-0.040482
-0.032374
-0.024265
-0.032374
-0.056700
-0.060754
-0.056700
-0.052646
-0.044537
-0.048591
-0.040482
-0.044537
-0.028319
-0.028319
-0.024265
-0.036428
-0.032374
-0.008047
-0.020210
-0.003993
0.004116
0.008170
0.016279
0.012225
0.008170
0.004116
0.020334
0.020334
0.032497
0.036551
0.048714
0.105476
0.206836
0.271706
0.231162
0.170346
0.024388
-0.182386
-0.170223
-0.068863
-0.068863
-0.072918
-0.012102
0.012225
0.004116
0.004116
0.008170
0.004116
0.024388
0.028442
0.044660
0.028442
0.044660
0.048714
0.036551
0.052769
0.044660
0.044660
0.052769
0.052769
0.060878
0.036551
0.016279
0.008170
0.020334
0.000062
0.000062
0.008170
0.012225
0.028442
0.040606
0.060878
0.068986
0.073041
0.077095
0.060878
0.060878
0.060878
0.040606
0.032497
0.032497
0.020334
0.024388
0.008170
0.012225
0.000062
0.000062
-0.028319
-0.028319
-0.020210
-0.003993
0.016279
0.028442
0.040606
0.052769
0.060878
0.052769
0.048714
0.056823
0.048714
0.052769
0.052769
0.040606
0.028442
0.024388
0.040606
0.101422
0.146020
0.089258
0.060878
-0.016156
-0.186441
-0.117516
-0.044537
-0.101298
-0.105353
-0.028319
0.008170
0.020334
0.028442
0.012225
0.016279
0.012225
0.004116
0.000062
-0.003993
-0.008047
-0.008047
-0.020210
-0.020210
-0.020210
-0.003993
0.004116
0.012225
0.012225
0.028442
0.028442
0.032497
0.024388
0.024388
0.028442
0.032497
0.036551
0.036551
0.052769
0.060878
0.060878
0.060878
0.032497
0.016279
0.012225
0.012225
0.016279
0.012225
0.012225
0.000062
-0.012102
-0.012102
-0.020210
-0.012102
-0.003993
0.004116
0.016279
0.016279
0.024388
0.028442
0.020334
0.008170
0.012225
0.016279
0.024388
0.012225
0.004116
0.000062
-0.008047
-0.008047
0.004116
-0.016156
-0.008047
0.000062
0.073041
0.162237
0.198727
0.186564
0.044660
-0.206713
-0.324290
-0.190495
-0.133734
-0.154006
-0.072918
-0.032374
-0.016156
-0.016156
-0.012102
-0.012102
-0.008047
0.000062
0.008170
0.004116
-0.003993
-0.020210
-0.020210
-0.032374
-0.036428
-0.024265
-0.032374
-0.036428
-0.044537
-0.040482
-0.032374
-0.028319
-0.020210
-0.003993
0.008170
0.016279
0.024388
0.012225
0.008170
0.012225
0.028442
0.016279
0.008170
0.000062
-0.020210
-0.032374
-0.024265
-0.024265
-0.024265
-0.020210
-0.016156
-0.020210
-0.008047
0.000062
-0.003993
0.000062
-0.008047
-0.012102
0.000062
0.008170
0.000062
0.004116
0.008170
0.008170
-0.003993
-0.020210
-0.028319
-0.040482
-0.036428
-0.040482
-0.012102
0.000062
-0.008047
-0.020210
-0.036428
-0.036428
-0.024265
-0.032374
-0.020210
-0.016156
-0.020210
0.032497
0.146020
0.214945
0.194673
0.081150
-0.125625
-0.376997
-0.316181
-0.182386
-0.166169
-0.141842
-0.064809
-0.052646
-0.044537
-0.036428
-0.036428
-0.020210
-0.016156
-0.024265
-0.036428
-0.028319
-0.028319
-0.020210
-0.028319
-0.016156
-0.016156
-0.020210
0.004116
-0.003993
-0.012102
-0.024265
-0.032374
-0.032374
-0.048591
-0.044537
-0.052646
-0.036428
-0.028319
-0.016156
-0.003993
0.004116
0.016279
0.028442
0.028442
0.024388
0.020334
0.004116
-0.012102
-0.028319
-0.028319
-0.028319
-0.032374
-0.036428
-0.032374
-0.044537
-0.048591
-0.044537
-0.003993
-0.003993
0.016279
0.032497
0.040606
0.028442
0.040606
0.032497
0.036551
0.044660
0.040606
0.044660
0.044660
0.040606
0.040606
0.036551
0.040606
0.040606
0.040606
0.056823
0.052769
0.085204
0.133857
0.202781
0.178455
0.121693
-0.032374
-0.218876
-0.149951
-0.081026
-0.105353
-0.097244
-0.020210
0.012225
0.020334
0.040606
0.056823
0.060878
0.064932
0.052769
0.040606
0.044660
0.032497
0.020334
0.016279
0.020334
0.008170
0.004116
0.024388
0.000062
-0.008047
0.000062
0.000062
0.016279
0.020334
0.032497
0.032497
0.048714
0.048714
0.048714
0.048714
0.044660
0.044660
0.028442
0.012225
0.020334
0.024388
0.004116
0.012225
0.012225
-0.003993
0.012225
0.012225
0.012225
0.020334
0.060878
0.048714
0.044660
0.052769
0.028442
0.024388
0.012225
0.016279
0.008170
-0.008047
-0.003993
-0.020210
-0.008047
-0.016156
-0.016156
0.004116
-0.012102
0.008170
0.024388
0.036551
0.028442
0.024388
0.008170
0.000062
-0.003993
-0.020210
-0.024265
-0.032374
-0.036428
-0.040482
-0.044537
-0.036428
-0.024265
-0.003993
0.004116
0.020334
0.024388
0.052769
0.133857
0.239271
0.247380
0.186564
0.056823
-0.154006
-0.251311
-0.178332
-0.145897
-0.166169
-0.093190
-0.036428
-0.032374
-0.016156
0.000062
0.008170
0.020334
0.020334
0.036551
0.036551
0.028442
0.024388
0.016279
0.016279
0.012225
0.008170
0.008170
0.000062
0.000062
0.008170
0.008170
0.020334
0.020334
0.020334
0.028442
0.028442
0.040606
0.056823
0.056823
0.064932
0.064932
0.044660
0.040606
0.028442
0.008170
-0.003993
0.000062
0.000062
0.000062
0.004116
0.008170
0.020334
0.016279
0.020334
0.028442
0.040606
0.016279
0.024388
0.024388
0.024388
0.016279
0.012225
0.000062
0.000062
0.004116
0.000062
0.004116
0.016279
0.012225
0.016279
0.000062
0.016279
0.008170
0.000062
-0.008047
-0.003993
-0.016156
-0.020210
-0.032374
-0.028319
-0.024265
0.028442
0.125748
0.235217
0.247380
0.170346
-0.072918
-0.360780
-0.348617
-0.178332
-0.170223
-0.129679
-0.048591
-0.016156
-0.032374
-0.024265
-0.032374
-0.028319
-0.012102
-0.008047
-0.012102
-0.012102
-0.024265
-0.024265
-0.024265
-0.012102
-0.020210
-0.016156
-0.028319
-0.024265
-0.028319
-0.020210
-0.012102
-0.003993
-0.008047
-0.008047
0.000062
-0.003993
0.000062
0.016279
0.008170
0.008170
0.008170
-0.003993
-0.003993
-0.020210
-0.016156
-0.020210
-0.024265
-0.008047
0.000062
-0.003993
0.000062
0.016279
-0.008047
-0.003993
-0.016156
-0.008047
-0.003993
-0.008047
-0.016156
-0.012102
-0.020210
-0.020210
-0.036428
-0.028319
-0.024265
-0.020210
-0.016156
-0.016156
-0.016156
-0.016156
-0.016156
-0.028319
-0.028319
-0.032374
-0.040482
-0.032374
-0.036428
-0.048591
-0.040482
-0.032374
-0.044537
-0.044537
-0.032374
-0.032374
-0.012102
-0.020210
-0.024265
-0.024265
-0.028319
-0.028319
-0.028319
-0.016156
-0.024265
-0.028319
-0.028319
-0.036428
-0.032374
-0.032374
-0.040482
-0.024265
0.073041
0.170346
0.227108
0.178455
0.012225
-0.251311
-0.393215
-0.304018
-0.198604
-0.162114
-0.081026
-0.032374
-0.008047
-0.008047
-0.012102
-0.008047
-0.008047
-0.003993
0.004116
0.012225
0.008170
0.000062
0.004116
-0.003993
0.016279
0.012225
0.020334
0.024388
0.024388
0.032497
0.036551
0.024388
0.032497
0.040606
0.036551
0.044660
0.040606
0.056823
0.068986
0.077095
0.073041
0.073041
0.073041
0.085204
0.056823
0.044660
0.036551
0.028442
0.036551
0.028442
0.028442
0.036551
0.040606
0.048714
0.052769
0.052769
0.032497
0.048714
0.064932
0.073041
0.064932
0.044660
0.056823
0.024388
0.028442
0.000062
0.012225
0.012225
0.028442
0.040606
0.036551
0.032497
0.028442
0.024388
0.012225
0.016279
0.012225
0.004116
0.024388
0.016279
0.004116
0.004116
0.000062
-0.008047
0.000062
0.020334
-0.016156
-0.012102
-0.016156
-0.020210
-0.008047
-0.003993
0.000062
0.008170
0.016279
0.036551
0.129802
0.198727
0.178455
0.141965
0.024388
-0.170223
-0.186441
-0.109407
-0.137788
-0.125625
-0.052646
-0.020210
-0.008047
0.000062
-0.003993
0.012225
0.004116
0.012225
0.000062
-0.012102
-0.008047
0.000062
0.004116
0.012225
0.004116
0.008170
0.012225
0.016279
0.028442
0.024388
0.012225
0.020334
0.012225
0.000062
-0.008047
-0.008047
-0.003993
0.000062
0.008170
0.028442
0.040606
0.044660
0.032497
0.020334
0.016279
0.016279
0.020334
0.016279
0.020334
0.016279
0.024388
0.012225
0.000062
-0.020210
-0.020210
-0.020210
-0.028319
-0.028319
-0.024265
-0.016156
-0.016156
-0.012102
-0.008047
0.004116
0.008170
0.012225
0.024388
0.024388
0.020334
0.016279
0.016279
0.008170
-0.012102
-0.016156
-0.024265
-0.028319
-0.028319
-0.028319
-0.044537
-0.048591
0.016279
0.125748
0.223053
0.206836
0.137911
-0.072918
-0.324290
-0.279692
-0.133734
-0.113462
-0.081026
-0.024265
-0.008047
-0.016156
-0.016156
-0.012102
-0.016156
-0.016156
-0.028319
-0.024265
-0.020210
-0.003993
0.000062
0.004116
0.020334
0.012225
0.020334
0.040606
0.040606
0.056823
0.060878
0.044660
0.020334
0.004116
0.004116
0.004116
0.008170
0.008170
0.008170
0.016279
0.024388
0.020334
0.024388
0.024388
0.028442
0.028442
0.028442
0.028442
0.032497
0.028442
0.012225
0.000062
-0.012102
0.000062
0.008170
-0.008047
-0.012102
-0.012102
-0.016156
-0.008047
-0.003993
0.004116
0.012225
0.012225
0.036551
0.048714
0.040606
0.028442
0.024388
0.012225
0.012225
0.081150
0.170346
0.182509
0.105476
-0.056700
-0.263474
-0.356725
-0.174278
-0.109407
-0.133734
-0.056700
-0.003993
0.020334
0.020334
0.036551
0.012225
0.004116
0.000062
-0.012102
-0.012102
-0.016156
-0.016156
-0.020210
-0.016156
-0.020210
-0.016156
-0.020210
-0.012102
-0.003993
0.004116
0.008170
0.012225
0.028442
0.024388
0.024388
0.016279
0.016279
0.016279
0.016279
0.024388
0.040606
0.032497
0.012225
0.008170
0.008170
0.000062
0.004116
0.000062
0.012225
0.008170
0.004116
0.012225
0.016279
0.012225
0.016279
0.012225
0.016279
0.024388
0.020334
0.028442
0.020334
0.016279
0.012225
0.000062
0.004116
0.012225
0.016279
0.012225
0.012225
0.020334
0.024388
0.008170
-0.008047
0.024388
0.097367
0.174401
0.146020
0.121693
-0.044537
-0.279692
-0.275637
-0.117516
-0.125625
-0.129679
-0.036428
0.004116
0.016279
0.028442
0.012225
0.016279
0.016279
0.008170
0.004116
0.004116
0.012225
0.008170
0.008170
0.004116
0.000062
0.012225
0.000062
0.000062
0.020334
0.032497
0.024388
0.012225
0.004116
0.008170
0.000062
0.008170
0.008170
0.012225
0.024388
0.032497
0.044660
0.052769
0.044660
0.024388
0.024388
0.024388
0.016279
0.016279
0.012225
0.012225
0.012225
0.020334
0.008170
0.000062
-0.008047
-0.003993
0.000062
-0.003993
-0.003993
0.008170
0.020334
0.024388
0.016279
0.008170
0.016279
0.008170
0.012225
0.016279
0.000062
-0.008047
-0.012102
-0.020210
-0.028319
-0.036428
-0.028319
-0.040482
-0.032374
-0.024265
-0.024265
-0.016156
-0.012102
-0.003993
0.000062
0.004116
-0.003993
-0.008047
-0.008047
-0.008047
-0.016156
-0.020210
-0.028319
-0.032374
-0.032374
-0.036428
0.004116
0.109530
0.214945
0.231162
0.182509
-0.020210
-0.287801
-0.368889
-0.226985
-0.166169
-0.141842
-0.068863
-0.036428
-0.020210
-0.020210
-0.028319
-0.036428
-0.028319
-0.020210
-0.016156
-0.024265
-0.028319
-0.024265
-0.016156
-0.012102
-0.008047
-0.012102
-0.024265
-0.020210
-0.020210
-0.003993
-0.003993
-0.012102
-0.012102
-0.028319
-0.024265
-0.032374
-0.032374
-0.012102
0.004116
0.024388
0.020334
0.024388
0.016279
0.008170
0.000062
-0.008047
-0.008047
-0.016156
-0.024265
-0.028319
-0.020210
-0.020210
-0.020210
-0.020210
-0.016156
-0.020210
-0.008047
0.000062
0.016279
0.024388
0.016279
0.016279
0.020334
0.020334
0.028442
0.024388
0.004116
0.012225
0.008170
0.004116
0.008170
0.024388
0.109530
0.182509
0.178455
0.117639
0.000062
-0.202658
-0.210767
-0.072918
-0.060754
-0.097244
-0.028319
-0.003993
0.004116
0.012225
0.004116
0.000062
0.004116
0.012225
0.016279
