0.012225
0.016279
0.020334
0.020334
0.016279
0.020334
0.020334
0.020334
0.024388
0.024388
0.020334
0.020334
0.056823
0.060878
0.028442
-0.109407
-0.202658
-0.125625
-0.048591
-0.052646
-0.044537
-0.012102
0.008170
0.012225
0.032497
0.028442
0.028442
0.024388
0.020334
0.020334
0.012225
0.016279
0.012225
0.008170
0.008170
0.004116
0.004116
-0.003993
-0.003993
0.000062
-0.003993
-0.003993
-0.016156
-0.024265
-0.028319
-0.032374
-0.032374
-0.040482
-0.036428
-0.044537
-0.052646
-0.048591
-0.048591
-0.040482
-0.040482
-0.028319
-0.024265
-0.012102
-0.003993
0.004116
0.008170
0.012225
0.024388
0.016279
0.012225
0.016279
0.016279
0.016279
0.016279
0.016279
0.020334
0.028442
0.024388
0.024388
0.016279
0.024388
0.020334
0.012225
0.016279
0.012225
0.016279
0.008170
0.004116
-0.003993
0.008170
0.008170
0.016279
0.012225
0.008170
0.008170
0.008170
0.012225
0.012225
0.020334
0.012225
0.016279
0.012225
0.004116
0.008170
0.012225
0.012225
0.004116
0.012225
0.016279
0.008170
0.004116
0.004116
0.008170
0.012225
0.008170
0.008170
0.008170
0.000062
0.008170
0.008170
0.008170
0.028442
0.024388
0.028442
0.036551
0.032497
0.008170
-0.003993
-0.003993
0.004116
0.004116
-0.003993
0.000062
0.004116
-0.003993
0.000062
0.000062
0.004116
0.004116
0.012225
0.004116
0.008170
0.008170
0.008170
0.004116
0.004116
0.008170
0.060878
0.040606
-0.052646
-0.251311
-0.308073
-0.226985
-0.141842
-0.101298
-0.036428
-0.008047
0.004116
0.012225
0.016279
0.012225
0.008170
0.004116
0.012225
0.012225
0.016279
0.012225
0.012225
0.000062
0.004116
0.008170
0.000062
0.004116
0.008170
0.004116
-0.003993
0.000062
-0.003993
-0.003993
-0.003993
-0.012102
-0.016156
-0.016156
-0.012102
-0.024265
-0.032374
-0.024265
-0.020210
-0.020210
-0.020210
-0.008047
-0.008047
0.008170
0.008170
0.016279
0.016279
0.012225
0.016279
0.012225
0.016279
0.020334
0.020334
0.016279
0.008170
0.016279
0.012225
0.012225
0.012225
0.016279
0.016279
0.016279
0.016279
0.016279
0.020334
0.016279
0.012225
0.016279
0.004116
0.008170
0.004116
0.000062
0.000062
0.004116
0.012225
0.008170
0.004116
0.008170
0.000062
0.012225
0.012225
0.016279
0.008170
0.004116
0.000062
0.004116
0.000062
0.000062
0.008170
0.004116
0.008170
0.008170
0.008170
0.008170
0.004116
0.004116
0.008170
0.004116
0.004116
0.008170
0.012225
0.016279
0.024388
0.032497
0.036551
0.044660
0.040606
0.020334
0.004116
0.000062
0.004116
0.008170
0.008170
0.012225
0.008170
0.008170
0.008170
0.008170
0.012225
0.012225
0.000062
0.008170
0.004116
0.008170
0.004116
0.012225
0.008170
0.016279
0.060878
0.052769
0.016279
-0.186441
-0.271583
-0.206713
-0.145897
-0.109407
-0.052646
-0.012102
-0.003993
0.016279
0.024388
0.020334
0.020334
0.020334
0.020334
0.020334
0.012225
0.020334
0.020334
0.020334
0.012225
0.016279
0.008170
0.004116
0.012225
0.012225
0.012225
0.004116
-0.003993
-0.003993
-0.008047
-0.020210
-0.016156
-0.020210
-0.024265
-0.032374
-0.032374
-0.028319
-0.028319
-0.024265
-0.024265
-0.012102
-0.012102
0.000062
0.004116
0.012225
0.016279
0.008170
0.012225
0.016279
0.016279
0.012225
0.016279
0.016279
0.012225
0.016279
0.012225
0.008170
0.008170
0.012225
0.012225
0.000062
0.012225
0.000062
0.016279
0.016279
0.024388
0.012225
0.008170
0.004116
0.004116
0.008170
0.008170
0.004116
0.008170
0.012225
0.008170
0.008170
0.004116
0.012225
0.008170
0.004116
-0.003993
-0.003993
0.004116
0.008170
0.004116
0.020334
0.008170
0.012225
0.020334
0.008170
0.008170
0.008170
0.012225
0.008170
0.012225
0.000062
0.008170
0.004116
0.004116
0.008170
0.012225
0.020334
0.028442
0.028442
0.040606
0.028442
0.016279
0.004116
-0.003993
0.000062
-0.003993
0.000062
0.004116
0.008170
0.004116
0.008170
0.016279
0.004116
0.012225
0.012225
0.012225
0.012225
0.004116
0.008170
0.012225
0.012225
0.012225
0.064932
0.044660
-0.024265
-0.194550
-0.218876
-0.105353
-0.081026
-0.081026
-0.032374
-0.003993
0.004116
0.016279
0.024388
0.020334
0.016279
0.020334
0.024388
0.008170
0.004116
0.020334
0.004116
0.008170
0.008170
-0.003993
0.004116
0.000062
-0.003993
-0.003993
-0.012102
-0.016156
-0.024265
-0.016156
-0.024265
-0.028319
-0.032374
-0.044537
-0.040482
-0.048591
-0.040482
-0.052646
-0.040482
-0.040482
-0.024265
-0.020210
-0.016156
-0.008047
0.008170
0.008170
0.016279
0.020334
0.020334
0.016279
0.020334
0.016279
0.020334
0.024388
0.024388
0.024388
0.024388
0.020334
0.020334
0.016279
0.008170
0.020334
0.016279
0.008170
0.008170
0.008170
0.004116
0.000062
0.008170
0.012225
0.004116
0.008170
0.004116
0.008170
0.004116
0.012225
0.008170
0.008170
0.008170
0.008170
0.012225
0.012225
0.012225
0.008170
0.012225
0.012225
0.004116
0.008170
0.012225
0.020334
0.020334
0.016279
0.016279
0.008170
0.012225
0.008170
0.004116
0.012225
0.012225
0.016279
0.024388
0.028442
0.044660
0.036551
0.012225
-0.003993
0.004116
0.000062
-0.003993
0.000062
0.004116
0.016279
0.012225
0.016279
0.012225
0.024388
0.024388
0.020334
0.016279
0.012225
0.016279
0.016279
0.016279
0.012225
0.016279
0.068986
0.056823
0.012225
-0.158060
-0.222930
-0.141842
-0.093190
-0.076972
-0.048591
-0.003993
0.004116
0.012225
0.016279
0.012225
0.012225
0.016279
0.016279
0.016279
0.008170
0.020334
0.016279
0.016279
0.016279
0.012225
0.012225
0.004116
0.000062
0.000062
0.000062
-0.008047
-0.003993
-0.016156
-0.020210
-0.028319
-0.024265
-0.032374
-0.036428
-0.036428
-0.032374
-0.040482
-0.032374
-0.032374
-0.028319
-0.020210
-0.012102
-0.003993
0.004116
0.008170
0.012225
0.012225
0.020334
0.016279
0.016279
0.016279
0.016279
0.016279
0.012225
0.008170
0.012225
0.012225
0.008170
0.008170
0.004116
0.004116
0.008170
0.008170
0.012225
0.012225
0.008170
0.004116
0.008170
-0.003993
0.000062
0.004116
0.004116
0.012225
0.012225
0.008170
0.008170
0.000062
0.012225
0.008170
0.012225
0.008170
0.008170
0.004116
0.008170
0.008170
0.008170
0.008170
-0.003993
0.000062
0.004116
0.004116
0.008170
0.008170
0.008170
0.000062
0.004116
0.000062
-0.008047
-0.003993
0.000062
-0.003993
0.000062
0.012225
0.024388
0.036551
0.032497
0.028442
0.028442
0.012225
-0.008047
-0.008047
-0.008047
-0.003993
0.004116
0.004116
0.008170
0.008170
0.000062
0.000062
0.008170
0.004116
0.008170
0.008170
0.008170
0.004116
0.004116
0.008170
0.004116
0.012225
0.052769
0.044660
-0.056700
-0.226985
-0.271583
-0.198604
-0.125625
-0.089135
-0.028319
-0.008047
0.004116
0.016279
0.020334
0.020334
0.020334
0.020334
0.016279
0.012225
0.012225
0.012225
0.020334
0.012225
0.020334
0.008170
0.012225
0.004116
0.012225
0.004116
-0.003993
0.004116
-0.003993
0.000062
-0.008047
-0.008047
-0.012102
-0.016156
-0.016156
-0.024265
-0.024265
-0.036428
-0.028319
-0.016156
-0.016156
-0.012102
-0.008047
0.000062
0.008170
0.008170
0.012225
0.016279
0.008170
0.012225
0.008170
0.008170
0.016279
0.012225
0.004116
0.012225
0.012225
0.012225
0.016279
0.016279
0.020334
0.012225
0.012225
0.012225
0.008170
0.012225
0.012225
0.012225
0.008170
0.004116
0.016279
0.012225
0.004116
0.004116
0.008170
0.008170
0.008170
0.004116
0.008170
-0.003993
0.000062
-0.008047
0.000062
0.004116
0.000062
0.004116
0.004116
0.004116
0.004116
0.000062
0.000062
0.004116
0.004116
0.004116
0.008170
0.004116
0.004116
0.012225
0.016279
0.012225
0.004116
0.016279
0.016279
0.024388
0.036551
0.036551
0.028442
0.008170
0.000062
-0.003993
-0.003993
-0.003993
-0.003993
0.000062
0.004116
0.000062
0.000062
0.000062
0.004116
0.012225
0.016279
0.012225
0.012225
0.012225
0.004116
0.004116
0.004116
0.032497
0.052769
0.048714
-0.060754
-0.214821
-0.214821
-0.117516
-0.085081
-0.072918
-0.020210
0.000062
0.004116
0.008170
0.008170
0.016279
0.020334
0.016279
0.016279
0.016279
0.016279
0.016279
0.016279
0.016279
0.012225
0.012225
0.008170
0.008170
0.008170
-0.003993
-0.016156
-0.012102
-0.020210
-0.024265
-0.028319
-0.036428
-0.044537
-0.040482
-0.052646
-0.048591
-0.044537
-0.048591
-0.040482
-0.044537
-0.024265
-0.024265
-0.016156
-0.008047
0.008170
0.020334
0.016279
0.016279
0.028442
0.020334
0.024388
0.024388
0.028442
0.016279
0.016279
0.016279
0.020334
0.016279
0.016279
0.024388
0.020334
0.020334
0.020334
0.020334
0.016279
0.024388
0.008170
0.012225
0.020334
0.012225
0.012225
0.016279
0.008170
0.016279
0.012225
0.008170
0.020334
0.012225
0.020334
0.020334
0.016279
0.012225
0.016279
0.012225
0.016279
0.020334
0.024388
0.016279
0.028442
0.020334
0.020334
0.024388
0.020334
0.012225
0.012225
0.008170
0.008170
0.016279
0.032497
0.032497
0.036551
0.036551
0.024388
0.008170
0.000062
0.004116
0.000062
0.004116
0.004116
0.012225
0.012225
0.012225
0.020334
0.012225
0.008170
0.016279
0.016279
0.012225
0.008170
0.020334
0.016279
0.008170
0.012225
0.048714
0.056823
0.028442
-0.105353
-0.218876
-0.158060
-0.068863
-0.068863
-0.060754
-0.016156
-0.003993
0.008170
0.012225
0.024388
0.016279
0.028442
0.012225
0.016279
0.012225
0.012225
0.012225
0.008170
0.008170
0.004116
0.004116
0.004116
-0.003993
-0.003993
-0.003993
-0.016156
-0.016156
-0.020210
-0.016156
-0.020210
-0.032374
-0.032374
-0.032374
-0.040482
-0.044537
-0.044537
-0.048591
-0.036428
-0.036428
-0.020210
-0.016156
-0.008047
0.000062
0.004116
0.016279
0.020334
0.008170
0.020334
0.016279
0.020334
0.020334
0.028442
0.024388
0.020334
0.024388
0.020334
0.024388
0.020334
0.024388
0.020334
0.012225
0.016279
0.020334
0.016279
0.012225
0.012225
0.008170
0.004116
0.008170
0.008170
0.016279
0.000062
0.004116
0.008170
0.008170
0.008170
0.004116
0.012225
0.012225
0.016279
0.012225
0.004116
0.008170
0.004116
0.016279
0.012225
0.004116
0.012225
0.004116
0.008170
0.008170
0.008170
0.008170
0.008170
0.012225
0.004116
0.008170
0.008170
0.016279
0.004116
0.008170
0.020334
0.028442
0.028442
0.036551
0.036551
0.024388
0.004116
-0.003993
-0.003993
-0.003993
-0.003993
-0.003993
0.008170
0.008170
0.004116
0.000062
0.008170
0.004116
0.000062
0.004116
0.004116
0.000062
0.016279
0.008170
0.004116
0.000062
0.032497
0.052769
0.028442
-0.121570
-0.271583
-0.259420
-0.198604
-0.133734
-0.076972
-0.024265
0.000062
0.008170
0.012225
0.020334
0.024388
0.016279
0.016279
0.016279
0.012225
0.016279
0.020334
0.020334
0.020334
0.016279
0.008170
0.008170
0.008170
0.008170
0.004116
0.000062
-0.003993
-0.012102
-0.012102
-0.016156
-0.020210
-0.020210
-0.024265
-0.032374
-0.032374
-0.032374
-0.040482
-0.036428
-0.024265
-0.024265
-0.016156
-0.008047
0.008170
0.008170
0.008170
0.012225
0.020334
0.024388
0.024388
0.016279
0.020334
0.016279
0.012225
0.008170
0.016279
0.012225
0.012225
0.008170
0.016279
0.020334
0.008170
0.012225
0.012225
0.024388
0.016279
0.016279
0.008170
0.016279
0.020334
0.016279
0.012225
0.008170
0.008170
0.012225
0.008170
0.008170
0.008170
0.016279
0.012225
0.012225
0.008170
0.004116
0.008170
0.008170
0.008170
0.004116
0.004116
0.004116
0.012225
0.012225
0.004116
0.004116
0.008170
0.012225
0.016279
0.008170
0.012225
0.012225
0.008170
0.012225
0.020334
0.024388
0.032497
0.036551
0.024388
0.008170
0.004116
0.000062
0.000062
0.004116
0.004116
0.016279
0.012225
-0.003993
0.000062
0.008170
0.004116
0.000062
0.000062
0.004116
0.000062
0.008170
0.012225
0.008170
0.012225
0.064932
0.052769
0.024388
-0.170223
-0.275637
-0.218876
-0.154006
-0.113462
-0.056700
-0.008047
0.000062
0.020334
0.016279
0.016279
0.028442
0.016279
0.020334
0.020334
0.012225
0.016279
0.012225
0.012225
0.020334
0.012225
0.004116
-0.003993
0.008170
0.004116
0.004116
-0.003993
-0.003993
-0.003993
-0.020210
-0.020210
-0.024265
-0.024265
-0.036428
-0.048591
-0.040482
-0.048591
-0.040482
-0.040482
-0.040482
-0.036428
-0.016156
-0.012102
0.008170
0.008170
0.008170
0.020334
0.020334
0.024388
0.020334
0.020334
0.012225
0.024388
0.020334
0.020334
0.020334
0.024388
0.028442
0.020334
0.004116
0.016279
0.024388
0.016279
0.016279
0.020334
0.016279
0.024388
0.020334
0.016279
0.020334
0.008170
0.008170
0.016279
0.012225
0.016279
0.016279
0.008170
0.004116
0.004116
0.004116
0.008170
0.008170
0.008170
0.012225
0.016279
0.016279
0.008170
0.012225
0.012225
0.008170
0.016279
0.016279
0.020334
0.020334
0.008170
0.012225
0.016279
0.032497
0.028442
0.032497
0.036551
0.040606
0.016279
0.004116
-0.003993
0.004116
0.000062
0.008170
0.012225
0.012225
0.012225
0.008170
0.016279
0.008170
0.008170
0.012225
0.016279
0.012225
0.008170
0.004116
0.008170
0.008170
0.028442
0.064932
0.036551
-0.052646
-0.198604
-0.190495
-0.072918
-0.052646
-0.056700
-0.020210
0.008170
0.004116
0.012225
0.016279
0.020334
0.012225
0.016279
0.016279
0.012225
0.004116
0.012225
0.012225
0.016279
0.008170
-0.003993
0.004116
0.004116
0.000062
-0.003993
-0.008047
-0.008047
-0.020210
-0.024265
-0.024265
-0.044537
-0.040482
-0.044537
-0.044537
-0.044537
-0.052646
-0.048591
-0.048591
-0.040482
-0.036428
-0.028319
-0.020210
0.000062
0.008170
0.008170
0.012225
0.016279
0.020334
0.016279
0.020334
0.016279
0.020334
0.020334
0.024388
0.028442
0.032497
0.024388
0.024388
0.020334
0.028442
0.028442
0.024388
0.020334
0.012225
0.016279
0.020334
0.012225
0.012225
0.012225
0.008170
0.008170
0.012225
0.008170
0.012225
0.012225
0.008170
0.008170
0.016279
0.012225
0.016279
0.012225
0.012225
0.016279
0.016279
0.024388
0.016279
0.012225
0.008170
0.004116
0.008170
0.012225
0.004116
0.004116
0.008170
0.008170
0.012225
0.016279
0.016279
0.028442
0.032497
0.036551
0.036551
0.020334
0.000062
-0.003993
-0.008047
0.000062
0.000062
0.000062
0.008170
0.008170
0.008170
0.004116
0.008170
0.012225
0.004116
0.008170
0.008170
-0.003993
0.008170
0.004116
0.004116
0.008170
0.044660
0.056823
0.028442
-0.149951
-0.263474
-0.218876
-0.166169
-0.117516
-0.064809
-0.016156
0.000062
0.008170
0.004116
0.008170
0.012225
0.016279
0.016279
0.012225
0.016279
0.016279
0.012225
0.016279
0.016279
0.012225
0.012225
0.012225
0.004116
0.008170
0.004116
0.000062
0.000062
-0.003993
-0.008047
-0.028319
-0.024265
-0.020210
-0.032374
-0.036428
-0.036428
-0.036428
-0.028319
-0.032374
-0.024265
-0.024265
-0.016156
-0.003993
-0.003993
0.008170
0.012225
0.020334
0.008170
0.020334
0.020334
0.024388
0.028442
0.024388
0.016279
0.020334
0.024388
0.016279
0.008170
0.012225
0.016279
0.008170
0.016279
0.012225
0.016279
0.016279
0.008170
0.008170
0.004116
0.012225
0.008170
0.004116
0.012225
0.008170
0.016279
0.012225
0.012225
0.008170
0.008170
0.004116
0.016279
0.008170
0.008170
0.000062
0.000062
0.008170
0.000062
0.000062
0.004116
0.004116
0.008170
0.008170
0.012225
0.008170
0.008170
0.008170
0.004116
0.008170
0.012225
0.012225
0.008170
0.004116
0.008170
0.020334
0.012225
0.024388
0.028442
0.028442
0.012225
-0.003993
-0.008047
-0.008047
0.000062
-0.008047
0.000062
0.004116
0.004116
0.012225
0.004116
0.008170
0.012225
0.012225
0.012225
0.012225
0.012225
0.012225
0.020334
0.012225
0.020334
0.068986
0.052769
-0.024265
-0.218876
-0.283746
-0.202658
-0.129679
-0.089135
-0.032374
0.004116
0.008170
0.020334
0.024388
0.024388
0.020334
0.020334
0.020334
0.016279
0.016279
0.016279
0.016279
0.012225
0.020334
0.016279
0.012225
0.016279
0.012225
0.004116
-0.003993
0.000062
-0.003993
-0.008047
-0.008047
-0.020210
-0.020210
-0.020210
-0.020210
-0.024265
-0.032374
-0.032374
-0.036428
-0.032374
-0.016156
-0.016156
-0.003993
0.000062
0.008170
0.012225
0.008170
0.012225
0.008170
0.008170
0.016279
0.016279
0.016279
0.012225
0.012225
0.008170
0.016279
0.004116
0.004116
0.004116
0.000062
0.000062
0.004116
0.008170
0.004116
0.008170
0.008170
0.000062
0.004116
0.004116
0.000062
0.016279
0.004116
0.004116
0.008170
0.004116
0.000062
0.016279
0.012225
0.008170
0.000062
0.012225
0.012225
0.012225
0.004116
0.008170
0.008170
0.004116
0.004116
0.004116
0.008170
0.012225
0.012225
0.004116
0.008170
0.008170
0.012225
0.008170
0.012225
0.012225
0.012225
0.028442
0.024388
0.024388
0.028442
0.024388
0.012225
-0.003993
-0.003993
-0.008047
0.004116
-0.003993
0.000062
0.004116
0.008170
0.004116
0.008170
0.008170
0.004116
0.008170
0.012225
0.008170
0.012225
0.012225
0.004116
0.004116
0.004116
0.052769
0.048714
0.020334
-0.137788
-0.226985
-0.149951
-0.101298
-0.076972
-0.056700
-0.008047
0.000062
0.012225
0.020334
0.012225
0.024388
0.020334
0.012225
0.016279
0.024388
0.016279
0.004116
0.008170
0.004116
0.004116
0.008170
0.004116
0.000062
-0.008047
-0.012102
-0.016156
-0.016156
-0.016156
-0.016156
-0.032374
-0.032374
-0.044537
-0.052646
-0.048591
-0.056700
-0.056700
-0.052646
-0.044537
-0.044537
-0.024265
-0.020210
-0.012102
-0.003993
0.012225
0.012225
0.020334
0.016279
0.016279
0.020334
0.028442
0.028442
0.024388
0.028442
0.024388
0.024388
0.024388
0.024388
0.016279
0.020334
0.020334
0.020334
0.024388
0.020334
0.016279
0.012225
0.016279
0.008170
0.004116
0.024388
0.012225
0.016279
0.012225
0.012225
0.012225
0.012225
0.016279
0.016279
0.020334
0.016279
0.016279
0.012225
0.008170
0.008170
0.016279
0.012225
0.008170
0.016279
0.012225
0.016279
0.016279
0.020334
0.012225
0.024388
0.012225
0.016279
0.020334
0.016279
0.028442
0.032497
0.028442
0.044660
0.036551
0.016279
0.004116
0.000062
-0.003993
-0.003993
0.000062
0.008170
0.012225
0.012225
0.008170
0.012225
0.012225
0.012225
0.008170
0.012225
0.008170
0.008170
0.012225
0.012225
0.004116
0.016279
0.052769
0.040606
-0.048591
-0.218876
-0.231039
-0.129679
-0.097244
-0.068863
-0.024265
0.000062
0.008170
0.008170
0.016279
0.012225
0.016279
0.020334
0.016279
0.016279
0.020334
0.020334
0.012225
0.016279
0.016279
0.016279
0.012225
0.008170
0.008170
0.008170
-0.008047
-0.003993
-0.003993
-0.012102
-0.024265
-0.020210
-0.024265
-0.028319
-0.032374
-0.036428
-0.040482
-0.040482
-0.036428
-0.024265
-0.024265
-0.016156
-0.008047
0.000062
0.008170
0.012225
0.004116
0.008170
0.012225
0.012225
0.020334
0.016279
0.020334
0.016279
0.012225
0.012225
0.012225
0.016279
0.016279
0.016279
0.016279
0.016279
0.012225
0.020334
0.012225
0.012225
0.008170
0.000062
0.008170
0.000062
0.004116
0.004116
0.004116
0.004116
0.004116
0.000062
0.004116
0.004116
0.004116
0.004116
0.000062
0.004116
0.004116
0.000062
0.000062
0.004116
0.008170
0.008170
0.008170
0.012225
0.012225
0.008170
0.012225
0.008170
0.012225
0.008170
0.008170
0.008170
0.008170
0.012225
0.012225
0.008170
0.004116
0.020334
0.028442
0.032497
0.036551
0.036551
0.020334
0.000062
0.008170
-0.003993
0.000062
-0.003993
0.000062
0.008170
0.004116
0.004116
0.004116
0.008170
0.008170
0.008170
0.004116
0.008170
0.004116
0.008170
0.008170
0.008170
0.000062
0.060878
0.052769
0.028442
-0.178332
-0.275637
-0.226985
-0.166169
-0.117516
-0.052646
-0.008047
0.000062
0.024388
0.020334
0.020334
0.016279
0.012225
0.016279
0.020334
0.008170
0.008170
0.008170
0.008170
0.016279
0.012225
0.012225
0.008170
0.004116
0.004116
0.004116
0.004116
-0.008047
-0.008047
-0.012102
-0.012102
-0.012102
-0.016156
-0.024265
-0.028319
-0.032374
-0.036428
-0.032374
-0.024265
-0.028319
-0.016156
-0.016156
0.000062
0.004116
0.008170
0.012225
0.012225
0.016279
0.020334
0.020334
0.020334
0.020334
0.012225
0.008170
0.012225
0.012225
0.012225
0.008170
0.016279
0.012225
0.016279
0.008170
0.012225
0.012225
0.012225
0.016279
0.008170
0.016279
0.012225
0.004116
0.004116
0.004116
0.004116
0.004116
0.016279
0.004116
0.008170
0.012225
0.004116
0.004116
0.008170
0.004116
0.004116
0.004116
0.012225
0.008170
0.004116
0.016279
0.016279
0.012225
0.020334
0.008170
0.008170
0.008170
0.000062
0.004116
0.012225
0.012225
0.000062
0.004116
0.000062
0.020334
0.028442
0.024388
0.032497
0.028442
0.008170
-0.003993
-0.012102
-0.008047
-0.003993
0.000062
0.004116
0.004116
0.008170
0.008170
0.000062
0.004116
0.012225
0.008170
0.012225
0.020334
0.016279
0.012225
0.020334
0.012225
0.016279
0.060878
0.048714
0.008170
-0.170223
-0.231039
-0.133734
-0.085081
-0.068863
-0.032374
0.008170
0.004116
0.016279
0.024388
0.028442
0.024388
0.020334
0.020334
0.028442
0.024388
0.016279
0.008170
0.012225
0.004116
0.004116
0.004116
0.000062
-0.003993
-0.012102
-0.016156
-0.016156
-0.020210
-0.024265
-0.020210
-0.032374
-0.036428
-0.040482
-0.036428
-0.048591
-0.052646
-0.044537
-0.056700
-0.044537
-0.036428
-0.024265
-0.016156
-0.016156
-0.008047
0.004116
0.008170
0.008170
0.016279
0.020334
0.028442
0.020334
0.012225
0.020334
0.016279
0.016279
0.016279
0.008170
0.024388
0.016279
0.012225
0.016279
0.020334
0.016279
0.016279
0.020334
0.012225
0.012225
0.016279
0.008170
-0.003993
0.008170
0.008170
0.008170
0.000062
0.004116
0.012225
0.008170
0.012225
0.012225
0.016279
0.016279
0.008170
0.004116
0.008170
0.016279
0.020334
0.016279
0.020334
0.016279
0.012225
0.012225
0.012225
0.012225
0.008170
0.012225
0.016279
0.020334
0.028442
0.036551
0.036551
0.044660
0.040606
0.016279
0.008170
0.004116
0.004116
-0.003993
0.004116
0.008170
0.008170
0.008170
0.008170
0.012225
0.012225
0.012225
0.012225
0.012225
0.008170
0.008170
0.008170
0.008170
0.016279
0.012225
0.064932
0.048714
-0.003993
-0.182386
-0.231039
-0.129679
-0.085081
-0.072918
-0.040482
-0.008047
0.004116
0.016279
0.012225
0.012225
0.020334
0.012225
0.008170
0.012225
0.008170
0.016279
0.012225
0.004116
0.000062
0.000062
0.008170
0.008170
-0.003993
0.000062
-0.008047
-0.003993
-0.012102
-0.012102
-0.016156
-0.028319
-0.028319
-0.036428
-0.040482
-0.036428
-0.040482
-0.044537
-0.040482
-0.044537
-0.028319
-0.024265
-0.008047
0.004116
0.012225
0.012225
0.016279
0.020334
0.024388
0.024388
0.020334
0.020334
0.016279
0.020334
0.016279
0.020334
0.028442
0.028442
0.020334
0.024388
0.020334
0.020334
0.016279
0.020334
0.012225
0.008170
0.016279
0.016279
0.008170
0.016279
0.004116
0.004116
0.008170
0.008170
0.012225
0.004116
0.008170
0.008170
0.016279
0.016279
0.016279
0.016279
0.016279
0.012225
0.020334
0.008170
0.000062
0.016279
0.012225
0.008170
0.004116
0.008170
0.000062
0.008170
0.004116
0.004116
0.016279
0.004116
0.008170
0.004116
0.004116
-0.003993
0.008170
0.020334
0.028442
0.028442
0.032497
0.028442
0.012225
0.004116
-0.003993
0.008170
0.000062
0.000062
0.000062
0.008170
0.004116
0.012225
0.004116
0.000062
0.004116
0.012225
0.016279
0.008170
0.008170
0.000062
0.000062
0.012225
0.020334
0.056823
0.040606
-0.040482
-0.239148
-0.308073
-0.226985
-0.149951
-0.105353
-0.040482
-0.008047
0.000062
0.008170
0.012225
0.016279
0.024388
0.024388
0.016279
0.020334
0.016279
0.012225
0.016279
0.016279
0.012225
0.016279
0.008170
0.008170
0.004116
0.000062
0.000062
0.004116
-0.003993
-0.008047
-0.008047
-0.016156
-0.020210
-0.024265
-0.032374
-0.032374
-0.024265
-0.024265
-0.032374
-0.020210
-0.016156
-0.008047
0.004116
0.008170
0.016279
0.024388
0.024388
0.024388
0.016279
0.024388
0.020334
0.020334
0.016279
0.020334
0.012225
0.012225
0.016279
0.012225
0.012225
0.012225
0.020334
0.016279
0.012225
0.012225
0.016279
0.016279
0.016279
0.008170
0.016279
0.012225
0.012225
0.012225
0.012225
0.012225
0.012225
0.012225
0.008170
0.012225
0.004116
0.008170
0.012225
0.012225
0.020334
0.016279
0.016279
0.012225
0.008170
0.008170
0.012225
0.012225
0.004116
0.016279
0.012225
0.000062
0.008170
0.008170
0.008170
0.012225
0.012225
0.012225
0.000062
0.004116
0.004116
0.020334
0.020334
0.032497
0.036551
0.028442
0.004116
0.000062
-0.003993
-0.008047
-0.003993
0.004116
0.000062
0.000062
0.000062
-0.003993
0.004116
0.004116
0.008170
0.004116
0.012225
0.004116
-0.003993
0.000062
0.004116
0.000062
0.004116
0.052769
0.040606
-0.036428
-0.231039
-0.291855
-0.202658
-0.137788
-0.097244
-0.032374
-0.008047
0.000062
0.012225
0.012225
0.012225
0.012225
0.012225
0.008170
0.012225
0.012225
0.016279
0.020334
0.012225
0.012225
0.004116
0.004116
0.008170
0.004116
0.000062
-0.003993
-0.008047
-0.008047
-0.012102
-0.016156
-0.024265
-0.032374
-0.036428
-0.044537
-0.044537
-0.040482
-0.052646
-0.052646
-0.036428
-0.036428
-0.024265
-0.012102
0.004116
0.004116
0.008170
0.012225
0.008170
0.012225
0.020334
0.012225
0.012225
0.016279
0.020334
0.020334
0.008170
0.000062
0.008170
0.008170
0.020334
0.020334
0.016279
0.016279
0.012225
0.016279
0.016279
0.028442
0.020334
0.008170
0.016279
0.020334
0.020334
0.004116
0.024388
0.012225
0.012225
0.012225
0.012225
0.008170
0.000062
0.008170
0.012225
0.008170
0.008170
0.016279
0.016279
0.012225
0.020334
0.024388
0.012225
0.016279
0.020334
0.016279
0.016279
0.024388
0.020334
0.008170
0.020334
0.032497
0.040606
0.032497
0.040606
0.036551
0.020334
0.012225
0.008170
0.004116
0.016279
0.012225
0.008170
0.008170
0.008170
0.012225
0.004116
0.016279
0.016279
0.008170
0.016279
0.012225
0.012225
0.012225
0.020334
0.012225
0.024388
0.060878
0.060878
0.032497
-0.109407
-0.206713
-0.129679
-0.064809
-0.052646
-0.048591
-0.012102
0.004116
0.008170
0.016279
0.020334
0.024388
0.020334
0.024388
0.012225
0.012225
0.004116
0.016279
0.008170
0.008170
0.008170
0.008170
0.000062
0.000062
0.000062
0.004116
-0.008047
-0.020210
-0.016156
-0.020210
-0.024265
-0.032374
-0.040482
-0.044537
-0.056700
-0.060754
-0.064809
-0.060754
-0.048591
-0.044537
-0.032374
-0.020210
-0.008047
0.004116
0.012225
0.024388
0.016279
0.028442
0.020334
0.020334
0.024388
0.016279
0.016279
0.024388
0.024388
0.024388
0.024388
0.028442
0.024388
0.024388
0.024388
0.028442
0.020334
0.020334
0.020334
0.020334
0.012225
0.012225
0.012225
0.004116
0.008170
0.008170
0.004116
0.012225
0.012225
0.004116
0.008170
0.004116
0.008170
0.008170
0.008170
0.004116
-0.003993
0.004116
0.012225
0.008170
-0.003993
0.004116
0.012225
0.012225
0.012225
0.012225
0.012225
0.016279
0.016279
0.020334
0.008170
0.004116
0.016279
0.028442
0.024388
0.032497
0.036551
0.028442
0.008170
-0.003993
-0.003993
-0.008047
0.000062
0.000062
0.004116
0.004116
-0.003993
-0.003993
0.004116
0.008170
0.008170
0.012225
0.012225
0.008170
0.008170
0.004116
0.008170
0.008170
0.048714
0.056823
0.044660
-0.121570
-0.263474
-0.226985
-0.178332
-0.109407
-0.068863
-0.016156
-0.003993
0.012225
0.016279
0.008170
0.016279
0.008170
0.020334
0.004116
0.004116
0.012225
0.004116
0.004116
-0.003993
0.000062
0.000062
-0.003993
-0.003993
-0.003993
0.000062
-0.008047
-0.016156
-0.008047
-0.020210
-0.024265
-0.028319
-0.036428
-0.028319
-0.040482
-0.036428
-0.044537
-0.040482
-0.036428
-0.028319
-0.036428
-0.024265
-0.012102
0.004116
0.008170
0.008170
0.016279
0.016279
0.016279
0.020334
0.016279
0.012225
0.020334
0.016279
0.012225
0.016279
0.012225
0.024388
0.020334
0.020334
0.020334
0.024388
0.016279
0.020334
0.020334
0.024388
0.016279
0.016279
0.016279
0.016279
0.016279
0.008170
0.008170
0.012225
0.012225
0.012225
0.008170
0.000062
0.008170
0.012225
0.012225
0.016279
0.012225
0.008170
0.008170
0.012225
0.016279
0.012225
0.012225
0.016279
0.008170
0.016279
0.012225
0.016279
0.012225
0.008170
0.016279
0.020334
0.012225
0.012225
0.028442
0.036551
0.036551
0.040606
0.044660
0.016279
0.008170
0.000062
-0.003993
0.004116
-0.003993
0.004116
0.008170
0.000062
0.000062
0.004116
0.008170
0.008170
0.008170
0.008170
0.008170
0.012225
0.016279
0.012225
0.004116
0.024388
0.056823
0.040606
-0.089135
-0.247257
-0.255365
-0.182386
-0.117516
-0.085081
-0.036428
-0.016156
0.004116
0.008170
0.012225
0.008170
0.016279
0.012225
0.016279
0.008170
0.008170
0.020334
0.012225
0.012225
0.008170
0.012225
0.020334
0.004116
0.004116
0.000062
0.000062
0.000062
0.000062
-0.016156
-0.008047
-0.016156
-0.016156
-0.036428
-0.028319
-0.028319
-0.036428
-0.036428
-0.028319
-0.028319
-0.020210
-0.016156
-0.003993
0.000062
0.012225
0.012225
0.016279
0.016279
0.008170
0.016279
0.020334
0.016279
0.008170
0.012225
0.012225
0.012225
0.016279
0.016279
0.016279
0.012225
0.020334
0.012225
0.012225
0.020334
0.008170
0.012225
0.012225
0.016279
0.012225
0.016279
0.008170
0.012225
0.008170
0.008170
0.012225
0.012225
0.020334
0.012225
0.012225
0.016279
0.012225
0.016279
0.020334
0.016279
0.012225
0.008170
0.016279
0.016279
0.012225
0.000062
0.004116
0.016279
0.012225
0.012225
0.008170
0.016279
0.012225
0.016279
0.024388
0.028442
0.040606
0.040606
0.024388
0.008170
0.012225
0.012225
0.000062
0.000062
0.008170
0.020334
0.016279
0.016279
0.008170
0.004116
0.012225
0.008170
0.016279
0.012225
0.008170
0.008170
0.008170
0.008170
0.016279
0.060878
0.040606
-0.024265
-0.190495
-0.210767
-0.097244
-0.068863
-0.068863
-0.036428
-0.016156
0.000062
0.008170
0.008170
0.008170
0.004116
0.008170
0.004116
0.004116
0.004116
0.008170
0.000062
0.004116
0.012225
0.000062
0.004116
0.000062
0.000062
-0.016156
-0.016156
-0.008047
-0.016156
-0.032374
-0.040482
-0.036428
-0.040482
-0.048591
-0.048591
-0.048591
-0.052646
-0.052646
-0.052646
-0.048591
-0.044537
-0.028319
-0.012102
-0.003993
0.000062
0.008170
0.016279
0.020334
0.016279
0.016279
0.028442
0.028442
0.024388
0.028442
0.036551
0.024388
0.020334
0.024388
0.024388
0.024388
0.024388
0.024388
0.024388
0.020334
0.016279
0.016279
0.020334
0.016279
0.012225
0.012225
0.008170
0.012225
0.016279
0.024388
0.016279
0.016279
0.020334
0.020334
0.012225
0.032497
0.020334
0.020334
0.024388
0.024388
0.024388
0.028442
0.020334
0.024388
0.020334
0.028442
0.020334
0.012225
0.016279
0.012225
0.024388
0.016279
0.016279
0.028442
0.036551
0.032497
0.028442
0.020334
0.004116
0.000062
0.000062
0.000062
0.004116
0.000062
0.004116
0.008170
0.004116
0.004116
0.004116
0.012225
0.008170
0.004116
0.016279
0.016279
0.012225
0.008170
0.012225
0.004116
0.056823
0.040606
-0.003993
-0.198604
-0.267529
-0.174278
-0.121570
-0.093190
-0.044537
-0.008047
-0.003993
0.004116
0.008170
0.016279
0.020334
0.008170
0.008170
0.008170
0.008170
0.012225
0.008170
0.004116
0.000062
0.000062
0.000062
0.004116
-0.003993
-0.008047
-0.008047
-0.012102
-0.020210
-0.016156
-0.024265
-0.032374
-0.032374
-0.036428
-0.036428
-0.032374
-0.036428
-0.040482
-0.036428
-0.032374
-0.020210
-0.016156
-0.012102
-0.003993
0.004116
0.012225
0.012225
0.012225
0.016279
0.008170
0.012225
0.008170
0.016279
0.016279
0.012225
0.008170
0.012225
0.016279
0.016279
0.020334
0.024388
0.020334
0.020334
0.016279
0.012225
0.008170
0.004116
0.004116
0.004116
0.004116
0.004116
0.004116
0.012225
0.012225
0.008170
0.004116
0.008170
0.008170
0.008170
0.008170
0.012225
0.012225
0.008170
0.008170
0.008170
0.008170
0.020334
0.020334
0.012225
0.020334
0.020334
0.020334
0.024388
0.024388
0.020334
0.020334
0.004116
0.008170
0.016279
0.024388
0.028442
0.028442
0.024388
0.028442
0.028442
0.008170
0.000062
-0.003993
-0.003993
-0.003993
0.000062
0.000062
0.000062
0.000062
0.008170
-0.003993
0.000062
0.008170
0.004116
0.004116
0.004116
0.000062
0.008170
0.008170
0.008170
0.060878
0.048714
0.012225
-0.190495
-0.279692
-0.214821
-0.154006
-0.109407
-0.040482
-0.008047
-0.008047
0.016279
0.016279
0.016279
0.016279
0.008170
0.012225
0.012225
0.012225
0.016279
0.016279
0.020334
0.016279
0.012225
0.012225
0.004116
0.012225
0.008170
0.004116
0.000062
-0.003993
-0.003993
-0.008047
-0.012102
-0.016156
-0.024265
-0.036428
-0.032374
-0.040482
-0.036428
-0.040482
-0.036428
-0.024265
-0.016156
-0.003993
0.008170
0.008170
0.016279
0.016279
0.012225
0.028442
0.020334
0.024388
0.016279
0.016279
0.016279
0.008170
0.012225
0.016279
0.008170
0.012225
0.016279
0.020334
0.020334
0.012225
0.012225
0.020334
0.020334
0.016279
0.020334
0.020334
0.016279
0.024388
0.016279
0.004116
0.008170
0.008170
0.016279
0.008170
0.012225
0.012225
0.012225
0.008170
0.008170
0.008170
0.016279
0.016279
0.016279
0.000062
0.012225
0.016279
0.016279
0.012225
0.012225
0.008170
0.004116
0.008170
0.008170
0.012225
0.020334
0.024388
0.024388
0.028442
0.036551
0.020334
0.000062
0.000062
-0.012102
-0.012102
-0.003993
-0.008047
0.000062
-0.003993
0.004116
0.000062
0.008170
0.008170
0.016279
0.012225
-0.003993
0.008170
0.004116
0.004116
0.004116
0.012225
0.060878
0.040606
-0.008047
-0.170223
-0.231039
-0.137788
-0.097244
-0.085081
-0.048591
-0.012102
-0.003993
0.000062
0.016279
0.008170
0.024388
0.020334
0.016279
0.016279
0.012225
0.012225
0.012225
0.012225
0.008170
0.012225
0.012225
0.008170
0.004116
0.000062
-0.012102
-0.003993
-0.012102
-0.020210
-0.028319
-0.040482
-0.044537
-0.036428
-0.044537
-0.048591
-0.056700
-0.056700
-0.052646
-0.044537
-0.040482
-0.032374
-0.016156
0.000062
0.000062
0.020334
0.008170
0.008170
0.028442
0.020334
0.032497
0.028442
0.020334
0.024388
0.016279
0.020334
0.024388
0.024388
0.020334
0.012225
0.028442
0.016279
0.020334
0.016279
0.016279
0.008170
0.004116
0.008170
0.012225
0.012225
0.012225
0.000062
0.004116
0.000062
0.012225
0.008170
0.020334
0.016279
0.016279
0.012225
0.016279
0.016279
0.016279
0.016279
0.016279
0.020334
0.012225
0.016279
0.016279
0.012225
0.012225
0.016279
0.012225
0.012225
0.016279
0.020334
0.028442
0.028442
0.032497
0.040606
0.028442
0.008170
-0.003993
0.000062
0.000062
0.004116
0.004116
0.012225
0.008170
0.008170
0.004116
0.008170
0.016279
0.016279
0.016279
0.016279
0.016279
0.012225
0.012225
0.008170
0.020334
0.060878
0.056823
0.020334
-0.133734
-0.222930
-0.145897
-0.085081
-0.076972
-0.048591
-0.016156
0.000062
0.016279
0.020334
0.024388
0.008170
0.024388
0.020334
0.016279
0.012225
0.016279
0.016279
0.012225
0.016279
0.012225
0.016279
0.008170
0.008170
-0.003993
-0.003993
-0.012102
-0.008047
-0.012102
-0.020210
-0.028319
-0.032374
-0.040482
-0.044537
-0.052646
-0.044537
-0.048591
-0.044537
-0.044537
-0.028319
-0.024265
-0.008047
-0.003993
0.000062
0.008170
0.008170
0.012225
0.020334
0.012225
0.020334
0.020334
0.020334
0.012225
0.020334
0.016279
0.016279
0.016279
0.020334
0.016279
0.020334
0.012225
0.016279
0.012225
0.008170
0.012225
0.004116
0.012225
0.000062
-0.003993
0.000062
0.000062
0.000062
0.000062
0.004116
0.016279
0.016279
0.008170
0.008170
0.012225
0.008170
0.012225
0.008170
0.016279
0.016279
0.020334
0.016279
0.012225
0.016279
0.012225
0.008170
0.008170
0.008170
0.012225
0.012225
0.008170
0.016279
0.020334
0.016279
0.028442
0.024388
0.036551
0.040606
0.040606
0.036551
0.012225
-0.003993
0.000062
-0.003993
0.004116
0.004116
0.008170
0.008170
0.012225
0.008170
0.016279
0.012225
0.016279
0.008170
0.008170
0.008170
0.000062
0.008170
0.004116
0.008170
0.036551
0.052769
0.040606
-0.125625
-0.279692
-0.259420
-0.202658
-0.133734
-0.076972
-0.020210
-0.008047
0.012225
0.004116
0.016279
0.020334
0.012225
0.012225
0.016279
0.012225
0.012225
0.008170
0.004116
0.000062
0.004116
0.012225
0.012225
0.008170
0.004116
0.000062
0.004116
0.004116
-0.008047
-0.012102
-0.020210
-0.016156
-0.020210
-0.028319
-0.032374
-0.036428
-0.044537
-0.040482
-0.044537
-0.028319
-0.020210
-0.008047
0.000062
0.012225
0.020334
0.024388
0.020334
0.020334
0.016279
0.016279
0.016279
0.012225
0.008170
0.008170
0.000062
0.016279
0.016279
0.020334
0.012225
0.008170
0.012225
0.016279
0.012225
0.016279
0.024388
0.016279
0.012225
0.012225
0.012225
0.012225
0.012225
0.008170
0.008170
0.008170
0.012225
0.016279
0.008170
0.012225
0.008170
0.008170
0.008170
0.020334
0.020334
0.012225
0.016279
0.012225
0.016279
0.016279
0.008170
0.000062
0.004116
0.008170
0.004116
0.008170
0.004116
0.004116
0.004116
0.008170
0.000062
0.012225
0.020334
0.032497
0.028442
0.036551
0.020334
0.004116
0.008170
-0.003993
-0.003993
0.004116
0.000062
0.000062
0.000062
0.004116
0.016279
0.008170
0.012225
0.008170
0.012225
0.012225
0.008170
0.008170
0.000062
0.008170
0.012225
0.068986
0.048714
-0.003993
-0.198604
-0.275637
-0.190495
-0.129679
-0.105353
-0.040482
0.000062
0.004116
0.012225
0.016279
0.020334
0.024388
0.016279
0.016279
0.012225
0.016279
0.012225
0.020334
0.008170
0.008170
0.012225
0.012225
0.004116
0.004116
0.000062
-0.003993
-0.012102
-0.012102
-0.012102
-0.008047
-0.020210
-0.032374
-0.040482
-0.040482
-0.048591
-0.056700
-0.044537
-0.056700
-0.044537
-0.032374
-0.020210
-0.008047
-0.003993
0.008170
0.016279
0.020334
0.012225
0.024388
0.020334
0.020334
0.012225
0.012225
0.016279
0.016279
0.020334
0.016279
0.024388
0.016279
0.016279
0.016279
0.020334
0.016279
0.020334
0.024388
0.012225
0.016279
0.024388
0.016279
0.008170
0.012225
0.008170
0.008170
0.020334
0.016279
0.008170
0.012225
0.020334
0.020334
0.024388
0.020334
0.024388
0.024388
0.020334
0.012225
0.004116
0.016279
0.004116
0.012225
0.016279
0.016279
0.008170
0.012225
0.012225
0.000062
0.008170
0.020334
0.024388
0.028442
0.028442
0.020334
0.004116
0.000062
0.000062
-0.003993
-0.003993
0.000062
0.000062
-0.003993
0.000062
0.008170
0.008170
0.000062
0.008170
0.020334
0.016279
0.012225
0.008170
0.012225
0.008170
0.004116
0.040606
0.060878
0.024388
-0.081026
-0.206713
-0.182386
-0.064809
-0.044537
-0.056700
-0.016156
0.000062
0.020334
0.016279
0.020334
0.024388
0.020334
0.016279
0.016279
0.012225
0.012225
0.020334
0.012225
0.016279
0.004116
0.004116
0.004116
0.008170
0.000062
-0.008047
-0.012102
-0.012102
-0.012102
-0.016156
-0.020210
-0.036428
-0.044537
-0.040482
-0.048591
-0.052646
-0.056700
-0.060754
-0.056700
-0.052646
-0.040482
-0.024265
-0.012102
-0.003993
0.008170
0.008170
0.016279
0.020334
0.020334
0.020334
0.016279
0.024388
0.024388
0.020334
0.016279
0.024388
0.020334
0.028442
0.024388
0.024388
0.028442
0.028442
0.020334
0.020334
0.012225
0.024388
0.016279
0.012225
0.012225
0.008170
0.004116
0.004116
0.012225
0.008170
0.016279
0.012225
0.016279
0.016279
0.016279
0.012225
0.016279
0.020334
0.016279
0.012225
0.012225
0.016279
0.012225
0.012225
0.008170
0.012225
0.012225
0.016279
0.020334
0.020334
0.020334
0.020334
0.020334
0.024388
0.036551
0.040606
0.036551
0.044660
0.040606
0.024388
0.012225
0.008170
0.004116
0.008170
0.008170
0.012225
0.016279
0.012225
0.016279
0.004116
0.004116
-0.003993
0.004116
0.000062
0.004116
0.004116
0.012225
0.004116
0.012225
0.020334
0.064932
0.056823
0.028442
-0.182386
-0.287801
-0.231039
-0.170223
-0.113462
-0.052646
-0.012102
0.000062
0.016279
0.012225
0.016279
0.020334
0.016279
0.020334
0.008170
0.012225
0.020334
0.016279
0.016279
0.016279
0.012225
0.012225
0.008170
0.004116
0.000062
-0.003993
0.000062
-0.003993
-0.003993
-0.020210
-0.016156
-0.024265
-0.032374
-0.036428
-0.044537
-0.048591
-0.044537
-0.036428
-0.036428
-0.024265
-0.020210
-0.008047
-0.003993
0.008170
0.012225
0.008170
0.012225
0.012225
0.016279
0.016279
0.016279
0.012225
0.012225
0.012225
0.012225
0.008170
0.004116
0.004116
0.004116
0.012225
0.008170
0.012225
0.016279
0.020334
0.020334
0.012225
0.016279
0.008170
0.012225
0.008170
0.008170
0.008170
0.004116
0.004116
0.008170
0.004116
0.004116
0.004116
0.008170
0.012225
0.016279
0.004116
0.008170
0.004116
0.004116
0.000062
0.004116
0.012225
0.012225
0.004116
0.008170
0.008170
0.012225
0.008170
0.008170
0.012225
0.012225
0.012225
0.012225
0.024388
0.020334
0.028442
0.040606
0.044660
0.032497
0.016279
0.008170
0.004116
0.008170
0.008170
0.012225
0.008170
0.008170
0.012225
0.012225
0.008170
0.012225
0.008170
0.012225
0.008170
0.012225
0.008170
0.008170
0.008170
0.008170
0.048714
0.048714
0.032497
-0.145897
-0.255365
-0.218876
-0.166169
-0.109407
-0.060754
-0.016156
-0.003993
0.008170
0.016279
0.012225
0.012225
0.012225
0.016279
0.016279
0.008170
0.012225
0.008170
0.012225
0.008170
0.008170
0.012225
0.016279
0.016279
0.008170
0.000062
0.004116
-0.003993
0.000062
-0.012102
-0.012102
-0.024265
-0.028319
-0.044537
-0.040482
-0.044537
-0.032374
-0.040482
-0.040482
-0.028319
-0.020210
-0.012102
-0.003993
0.004116
0.008170
0.012225
0.016279
0.020334
0.012225
0.012225
0.016279
0.016279
0.012225
0.008170
0.008170
0.008170
0.004116
0.008170
0.016279
0.008170
0.016279
0.016279
0.016279
0.016279
0.012225
0.008170
0.008170
0.012225
0.020334
0.016279
0.016279
0.004116
0.016279
0.004116
0.008170
0.008170
0.008170
0.004116
0.004116
0.016279
0.016279
0.012225
0.012225
0.008170
0.008170
0.012225
0.008170
0.004116
0.004116
0.016279
0.012225
0.008170
0.012225
0.012225
0.008170
0.008170
0.012225
0.008170
0.012225
0.012225
0.016279
0.024388
0.020334
0.032497
0.024388
0.012225
0.000062
-0.003993
-0.003993
-0.003993
0.000062
0.000062
-0.008047
0.004116
0.000062
0.008170
0.012225
0.020334
0.020334
0.016279
0.016279
0.012225
0.016279
0.016279
0.008170
0.016279
0.056823
0.052769
0.004116
-0.166169
-0.235093
-0.137788
-0.101298
-0.081026
-0.036428
0.000062
0.008170
0.020334
0.012225
0.020334
0.028442
0.016279
0.012225
0.016279
0.012225
0.020334
0.016279
0.016279
0.012225
0.008170
0.012225
0.008170
0.008170
0.004116
-0.016156
-0.008047
-0.016156
-0.028319
-0.024265
-0.032374
-0.036428
-0.036428
-0.048591
-0.048591
-0.048591
-0.048591
-0.048591
-0.044537
-0.036428
-0.028319
-0.024265
-0.008047
0.004116
0.000062
0.012225
0.016279
0.012225
0.012225
0.012225
0.020334
0.020334
0.024388
0.020334
0.020334
0.020334
0.012225
0.028442
0.028442
0.024388
0.020334
0.016279
0.016279
0.024388
0.012225
0.012225
0.020334
0.016279
0.004116
0.012225
0.004116
0.004116
0.012225
0.012225
0.012225
0.004116
0.008170
0.008170
0.008170
0.012225
0.016279
0.016279
0.020334
0.016279
0.016279
0.024388
0.020334
0.008170
0.012225
0.024388
0.016279
0.016279
0.016279
0.016279
0.012225
0.016279
0.032497
0.028442
0.040606
0.044660
0.036551
0.024388
0.000062
0.004116
0.000062
0.004116
0.004116
0.000062
0.008170
0.008170
0.012225
0.012225
0.016279
0.016279
0.020334
0.020334
0.012225
0.012225
0.016279
0.016279
0.012225
0.008170
0.052769
0.040606
0.000062
-0.149951
-0.226985
-0.133734
-0.085081
-0.085081
-0.048591
-0.003993
0.004116
0.020334
0.020334
0.012225
0.028442
0.028442
0.020334
0.016279
0.008170
0.016279
0.020334
0.024388
0.020334
0.012225
0.016279
0.016279
0.008170
0.008170
0.004116
0.004116
0.004116
-0.008047
-0.012102
-0.016156
-0.028319
-0.024265
-0.040482
-0.044537
-0.040482
-0.036428
-0.036428
-0.040482
-0.032374
-0.024265
-0.008047
-0.003993
-0.003993
-0.003993
-0.003993
0.008170
0.004116
0.012225
0.012225
0.020334
0.020334
0.020334
0.016279
0.024388
0.020334
0.024388
0.028442
0.020334
0.012225
0.008170
0.012225
0.008170
0.004116
-0.003993
-0.003993
0.004116
0.004116
-0.008047
0.000062
0.000062
-0.008047
0.000062
0.000062
0.004116
0.004116
0.000062
0.004116
0.004116
0.000062
0.000062
0.000062
0.000062
-0.003993
0.008170
0.004116
0.008170
0.004116
0.004116
0.008170
0.000062
0.004116
0.004116
0.000062
0.008170
0.000062
0.000062
0.004116
0.008170
0.012225
0.008170
0.008170
0.020334
0.028442
0.040606
0.032497
0.016279
0.004116
0.000062
-0.003993
-0.003993
0.000062
0.008170
0.000062
0.004116
0.004116
0.008170
0.012225
0.012225
0.004116
0.004116
0.008170
0.008170
0.008170
0.012225
0.008170
0.004116
0.064932
0.040606
-0.016156
-0.218876
-0.304018
-0.218876
-0.154006
-0.097244
-0.036428
-0.008047
0.008170
0.016279
0.004116
0.008170
0.020334
0.000062
0.008170
0.020334
0.012225
0.016279
0.016279
0.012225
0.016279
0.008170
0.016279
0.012225
0.012225
0.012225
0.008170
0.012225
0.004116
0.000062
0.000062
-0.016156
-0.016156
-0.020210
-0.024265
-0.028319
-0.028319
-0.028319
-0.032374
-0.028319
-0.016156
-0.008047
0.000062
0.000062
0.004116
0.004116
0.012225
0.012225
0.016279
0.012225
0.012225
0.012225
0.020334
0.016279
0.012225
0.016279
0.016279
0.020334
0.012225
0.012225
0.012225
0.008170
0.016279
0.020334
0.024388
0.020334
0.012225
0.012225
0.012225
0.012225
0.004116
0.008170
0.008170
0.008170
0.012225
0.000062
0.004116
0.004116
0.004116
0.004116
0.008170
0.012225
0.008170
0.008170
0.008170
0.008170
0.012225
0.008170
0.008170
0.012225
0.008170
0.004116
0.012225
0.004116
0.004116
0.012225
0.008170
0.012225
0.020334
0.012225
0.012225
0.024388
0.024388
0.032497
0.032497
0.024388
0.024388
0.000062
-0.003993
-0.008047
-0.003993
-0.003993
0.000062
0.000062
-0.003993
-0.008047
0.000062
-0.008047
0.000062
0.000062
0.004116
0.012225
0.008170
0.000062
0.004116
0.004116
0.012225
0.056823
0.048714
0.032497
-0.145897
-0.263474
-0.206713
-0.154006
-0.101298
-0.056700
-0.008047
0.004116
0.024388
0.028442
0.028442
0.028442
0.016279
0.028442
0.020334
0.028442
0.028442
0.012225
0.020334
0.024388
0.024388
0.012225
0.008170
0.008170
0.008170
-0.008047
0.000062
-0.012102
-0.016156
-0.016156
-0.020210
-0.028319
-0.040482
-0.036428
-0.044537
-0.044537
-0.048591
-0.048591
-0.040482
-0.040482
-0.040482
-0.020210
-0.012102
0.000062
0.012225
0.016279
0.012225
0.012225
0.012225
0.016279
0.024388
0.020334
0.020334
0.016279
0.012225
0.016279
0.012225
0.016279
0.024388
0.016279
0.020334
0.008170
0.008170
0.008170
0.020334
0.012225
0.008170
0.008170
0.004116
0.008170
0.012225
0.016279
0.016279
0.016279
0.024388
0.016279
0.016279
0.012225
0.016279
0.016279
0.020334
0.012225
0.008170
0.016279
0.012225
0.008170
0.008170
0.012225
0.020334
0.016279
0.012225
0.008170
0.008170
0.012225
0.012225
0.020334
0.012225
0.020334
0.016279
0.024388
0.028442
0.016279
0.012225
0.000062
0.000062
-0.003993
-0.008047
0.004116
0.004116
0.008170
0.012225
0.012225
0.004116
0.020334
0.012225
0.024388
0.020334
0.016279
0.020334
0.016279
0.020334
0.020334
0.044660
0.068986
0.044660
-0.064809
-0.202658
-0.166169
-0.056700
-0.040482
-0.052646
-0.016156
0.012225
0.012225
0.016279
0.020334
0.020334
0.016279
0.016279
0.012225
0.016279
0.012225
0.016279
0.016279
0.012225
0.012225
0.008170
0.004116
0.004116
-0.003993
-0.008047
-0.020210
-0.012102
-0.020210
-0.020210
-0.028319
-0.036428
-0.036428
-0.040482
-0.040482
-0.044537
-0.052646
-0.048591
-0.048591
-0.044537
-0.032374
-0.024265
-0.012102
0.000062
0.004116
0.012225
0.012225
0.016279
0.016279
0.016279
0.024388
0.016279
0.020334
0.024388
0.024388
0.024388
0.020334
0.024388
0.020334
0.012225
0.024388
0.024388
0.024388
0.016279
0.024388
0.028442
0.016279
0.016279
0.020334
0.016279
0.016279
0.024388
0.016279
0.016279
0.012225
0.012225
0.008170
0.008170
0.008170
0.008170
0.012225
0.008170
0.008170
-0.008047
-0.003993
-0.003993
0.000062
0.004116
0.004116
0.004116
0.004116
0.000062
0.004116
0.004116
-0.003993
-0.003993
0.004116
0.008170
0.004116
0.008170
0.016279
0.024388
0.032497
0.044660
0.032497
0.016279
0.000062
-0.008047
-0.008047
0.000062
0.000062
0.004116
0.004116
0.008170
0.012225
0.008170
0.008170
0.012225
0.008170
0.008170
0.008170
0.008170
0.008170
0.008170
0.004116
0.012225
0.068986
0.032497
-0.032374
-0.235093
-0.299964
-0.214821
-0.133734
-0.097244
-0.024265
-0.003993
0.000062
0.012225
0.012225
0.012225
0.020334
0.012225
0.012225
0.012225
0.016279
0.016279
0.008170
0.008170
0.008170
0.000062
0.008170
0.000062
-0.003993
-0.003993
-0.003993
0.004116
-0.003993
-0.003993
-0.003993
-0.012102
-0.024265
-0.028319
-0.028319
-0.032374
-0.028319
-0.028319
-0.028319
-0.024265
-0.016156
-0.008047
0.008170
0.008170
0.012225
0.020334
0.016279
0.020334
0.020334
0.024388
0.016279
0.028442
0.024388
0.024388
0.012225
0.008170
0.016279
0.024388
0.020334
0.020334
0.020334
0.016279
0.016279
0.024388
0.024388
0.024388
0.020334
0.020334
0.020334
0.024388
0.016279
0.012225
0.012225
0.016279
0.016279
0.008170
0.008170
0.012225
0.008170
0.012225
0.016279
0.012225
0.004116
0.000062
0.012225
0.008170
0.008170
0.004116
0.004116
0.004116
0.008170
0.008170
0.012225
0.012225
0.004116
0.012225
0.004116
0.008170
0.012225
0.012225
0.012225
0.020334
0.024388
0.024388
0.028442
0.036551
0.020334
0.004116
-0.003993
-0.003993
-0.008047
0.000062
0.004116
0.008170
0.008170
0.000062
0.008170
0.004116
0.008170
0.012225
0.012225
0.008170
0.012225
0.004116
0.012225
0.016279
0.016279
0.052769
0.060878
0.044660
-0.129679
-0.263474
-0.226985
-0.170223
-0.117516
-0.064809
-0.020210
-0.003993
0.004116
0.016279
0.020334
0.024388
0.016279
0.016279
0.024388
0.020334
0.020334
0.012225
0.020334
0.008170
0.008170
0.012225
0.012225
0.008170
0.004116
0.004116
0.000062
-0.003993
-0.008047
-0.012102
-0.020210
-0.020210
-0.024265
-0.024265
-0.020210
-0.024265
-0.028319
-0.032374
-0.028319
-0.028319
-0.016156
-0.012102
-0.003993
-0.003993
0.000062
0.012225
0.012225
0.004116
0.012225
0.012225
0.012225
0.016279
0.012225
0.012225
0.016279
0.016279
0.016279
0.016279
0.016279
0.012225
0.012225
0.008170
0.012225
0.016279
0.016279
0.008170
0.008170
0.012225
0.008170
0.008170
0.004116
0.008170
0.008170
0.012225
0.016279
0.008170
0.004116
0.020334
0.008170
0.008170
0.008170
0.020334
0.012225
0.004116
0.004116
0.000062
0.012225
0.000062
0.008170
0.004116
0.004116
0.012225
-0.003993
-0.003993
0.008170
0.004116
0.008170
0.004116
0.004116
0.008170
0.012225
0.024388
0.028442
0.028442
0.036551
0.032497
0.012225
0.008170
0.000062
-0.012102
-0.003993
-0.008047
0.000062
0.004116
0.004116
0.008170
0.004116
0.000062
-0.003993
0.000062
0.000062
0.000062
0.004116
0.008170
0.012225
0.016279
0.016279
0.060878
0.052769
0.020334
-0.162114
-0.239148
-0.149951
-0.097244
-0.085081
-0.048591
-0.008047
-0.008047
0.016279
0.020334
0.016279
0.016279
0.020334
0.020334
0.016279
0.020334
0.016279
0.016279
0.008170
0.016279
0.008170
0.004116
0.000062
-0.008047
-0.008047
-0.020210
-0.012102
-0.012102
-0.020210
-0.020210
-0.028319
-0.036428
-0.052646
-0.044537
-0.044537
-0.048591
-0.048591
-0.052646
-0.048591
-0.032374
-0.024265
-0.024265
-0.012102
0.000062
0.008170
0.012225
0.020334
0.020334
0.016279
0.016279
0.024388
0.016279
0.020334
0.020334
0.020334
0.024388
0.028442
0.028442
0.012225
0.020334
0.016279
0.012225
0.024388
0.024388
0.020334
0.024388
0.008170
0.020334
0.024388
0.020334
0.024388
0.012225
0.020334
0.012225
0.016279
0.016279
0.012225
0.008170
0.012225
0.016279
0.016279
0.012225
0.012225
0.012225
0.016279
0.016279
0.008170
0.016279
0.020334
0.012225
0.016279
0.020334
0.020334
0.012225
0.012225
0.008170
0.008170
0.020334
0.028442
0.032497
0.036551
0.036551
0.024388
0.004116
0.004116
0.000062
0.004116
0.008170
0.016279
0.008170
0.008170
0.012225
0.012225
0.016279
0.012225
0.016279
0.016279
0.012225
0.012225
0.012225
0.012225
0.016279
0.020334
0.068986
0.052769
0.020334
-0.137788
-0.218876
-0.125625
-0.081026
-0.060754
-0.044537
0.000062
0.004116
0.016279
0.024388
0.020334
0.024388
0.012225
0.028442
0.024388
0.016279
0.028442
0.020334
0.020334
0.008170
0.012225
0.008170
0.004116
0.000062
0.000062
-0.008047
-0.008047
-0.008047
-0.016156
-0.016156
-0.020210
-0.036428
-0.032374
-0.036428
-0.040482
-0.036428
-0.052646
-0.040482
-0.044537
-0.028319
-0.028319
-0.012102
-0.003993
-0.003993
-0.003993
0.008170
0.016279
0.008170
0.004116
0.012225
0.008170
0.012225
0.016279
0.020334
0.012225
0.008170
0.004116
0.016279
0.016279
0.016279
0.012225
0.008170
0.012225
0.012225
0.004116
0.008170
-0.003993
0.004116
0.004116
0.008170
0.008170
-0.003993
-0.008047
0.004116
0.004116
0.004116
0.004116
0.004116
0.004116
0.004116
0.008170
0.004116
0.000062
0.000062
0.000062
0.000062
0.008170
0.008170
0.012225
0.012225
0.008170
0.012225
0.012225
0.012225
0.012225
0.008170
0.008170
0.004116
0.000062
0.012225
0.008170
0.016279
0.024388
0.028442
0.032497
0.036551
0.036551
0.012225
0.000062
-0.003993
-0.003993
0.000062
0.004116
0.008170
0.004116
0.004116
0.004116
0.008170
0.008170
0.008170
0.008170
0.004116
0.004116
0.004116
0.000062
0.008170
0.004116
0.024388
0.068986
0.040606
-0.081026
-0.243202
-0.267529
-0.198604
-0.125625
-0.081026
-0.024265
-0.008047
0.008170
0.012225
0.020334
0.020334
0.024388
0.024388
0.016279
0.004116
0.016279
0.016279
0.012225
0.012225
0.008170
0.008170
0.012225
0.012225
0.004116
0.004116
0.000062
-0.003993
-0.016156
-0.008047
-0.012102
-0.020210
-0.024265
-0.024265
-0.024265
-0.028319
-0.032374
-0.036428
-0.032374
-0.024265
-0.020210
-0.016156
0.000062
0.008170
0.004116
0.008170
0.012225
0.016279
0.016279
0.016279
0.016279
0.012225
0.012225
0.012225
0.012225
0.016279
0.016279
0.012225
0.004116
0.008170
0.012225
0.012225
0.016279
0.012225
0.008170
0.004116
0.004116
0.008170
0.012225
0.008170
0.004116
0.008170
0.008170
0.004116
0.004116
0.012225
0.012225
0.008170
0.012225
0.012225
0.008170
0.008170
0.008170
0.008170
0.008170
0.008170
0.008170
0.004116
0.012225
0.008170
0.008170
0.012225
0.004116
0.004116
0.000062
0.004116
-0.003993
0.008170
0.008170
0.012225
0.004116
0.000062
0.008170
0.024388
0.024388
0.032497
0.028442
0.016279
0.004116
0.012225
0.008170
0.004116
0.004116
0.000062
0.008170
0.012225
0.012225
0.000062
0.008170
0.012225
0.016279
0.012225
0.008170
0.012225
0.016279
0.008170
0.020334
0.024388
0.056823
0.048714
0.032497
-0.113462
-0.243202
-0.186441
-0.133734
-0.101298
-0.068863
-0.020210
-0.012102
0.008170
0.020334
0.012225
0.016279
0.016279
0.016279
0.020334
0.016279
0.012225
0.008170
0.016279
0.016279
0.016279
0.012225
0.012225
0.000062
0.000062
0.004116
-0.003993
-0.003993
-0.008047
-0.008047
-0.016156
-0.024265
-0.032374
-0.036428
-0.040482
-0.048591
-0.048591
-0.052646
-0.048591
-0.044537
-0.032374
-0.024265
-0.016156
-0.008047
0.008170
0.008170
0.012225
0.016279
0.020334
0.016279
0.012225
0.012225
0.016279
0.004116
0.004116
0.012225
0.016279
0.008170
0.016279
0.016279
0.004116
0.008170
0.008170
0.008170
0.008170
0.008170
0.008170
0.008170
0.004116
0.004116
0.016279
0.008170
0.008170
0.000062
0.008170
0.012225
0.012225
0.012225
0.008170
0.004116
0.008170
0.008170
0.012225
0.012225
0.012225
0.020334
0.024388
0.016279
0.020334
0.020334
0.012225
0.016279
0.008170
0.012225
0.012225
0.020334
0.016279
0.016279
0.036551
0.036551
0.036551
0.044660
0.036551
0.020334
0.008170
0.012225
0.008170
-0.003993
0.004116
0.008170
0.012225
0.020334
0.020334
0.020334
0.024388
0.016279
0.016279
0.016279
0.012225
0.016279
0.016279
0.012225
0.012225
0.024388
0.064932
0.040606
-0.012102
-0.170223
-0.202658
-0.085081
-0.060754
-0.056700
-0.036428
-0.003993
0.004116
0.024388
0.024388
0.024388
0.024388
0.020334
0.024388
0.020334
0.012225
0.020334
0.016279
0.016279
0.012225
0.004116
0.012225
0.004116
0.000062
-0.003993
-0.012102
-0.008047
-0.016156
-0.024265
-0.028319
-0.028319
-0.032374
-0.036428
-0.040482
-0.036428
-0.048591
-0.044537
-0.040482
-0.040482
-0.028319
-0.028319
-0.012102
-0.012102
-0.003993
-0.008047
0.012225
0.016279
0.008170
0.008170
0.016279
0.016279
0.024388
0.020334
0.024388
0.020334
0.028442
0.020334
0.020334
0.016279
0.016279
0.008170
0.012225
0.008170
0.012225
0.004116
0.004116
0.004116
0.000062
0.000062
0.004116
0.004116
0.000062
0.008170
0.008170
0.012225
0.004116
0.012225
0.008170
0.008170
0.004116
0.008170
0.008170
0.008170
0.008170
0.016279
0.012225
0.004116
0.012225
0.008170
0.008170
0.012225
0.008170
0.008170
-0.003993
0.008170
0.008170
0.012225
0.012225
0.008170
0.020334
0.012225
0.012225
0.020334
0.024388
0.028442
0.040606
0.044660
0.032497
0.008170
-0.008047
-0.003993
-0.003993
0.000062
0.000062
0.004116
0.008170
0.004116
0.004116
0.000062
0.008170
0.008170
0.008170
0.008170
0.004116
0.008170
0.008170
0.016279
0.012225
0.032497
0.060878
0.040606
-0.105353
-0.263474
-0.259420
-0.194550
-0.117516
-0.076972
-0.020210
0.004116
0.008170
0.012225
0.016279
0.016279
0.024388
0.020334
0.016279
0.020334
0.020334
0.020334
0.024388
0.020334
0.016279
0.012225
0.012225
0.016279
0.012225
0.008170
0.004116
0.004116
0.000062
0.000062
-0.003993
-0.012102
-0.016156
-0.016156
-0.024265
-0.028319
-0.032374
-0.032374
-0.032374
-0.016156
-0.012102
-0.003993
0.004116
0.008170
0.012225
0.016279
0.016279
0.016279
0.016279
0.020334
0.008170
0.008170
0.016279
0.012225
0.008170
0.008170
0.008170
0.004116
0.008170
0.008170
0.016279
0.012225
0.016279
0.012225
0.012225
0.012225
0.008170
0.008170
0.008170
0.008170
0.008170
0.004116
0.000062
0.004116
0.004116
0.004116
0.000062
0.004116
0.008170
-0.008047
0.008170
0.004116
0.012225
0.008170
0.008170
0.004116
0.008170
0.004116
0.012225
0.012225
0.008170
0.012225
0.016279
0.012225
0.012225
0.008170
0.008170
0.008170
0.008170
0.016279
0.016279
0.016279
0.028442
0.028442
0.032497
0.032497
0.020334
0.004116
-0.008047
-0.003993
0.004116
0.000062
0.008170
0.008170
0.000062
0.004116
0.004116
0.004116
0.008170
0.012225
0.004116
0.004116
0.000062
0.004116
0.008170
0.004116
0.008170
0.048714
0.048714
0.024388
-0.154006
-0.275637
-0.231039
-0.170223
-0.117516
-0.056700
-0.012102
-0.008047
0.004116
0.008170
0.012225
0.012225
0.012225
0.016279
0.016279
0.020334
0.012225
0.016279
0.012225
0.016279
0.020334
0.012225
0.012225
0.008170
-0.003993
-0.008047
-0.003993
-0.003993
-0.003993
-0.003993
-0.012102
-0.016156
-0.020210
-0.024265
-0.036428
-0.028319
-0.036428
-0.036428
-0.036428
-0.028319
-0.024265
-0.008047
0.000062
-0.003993
0.000062
0.016279
0.000062
0.004116
0.008170
0.012225
0.008170
0.012225
0.012225
0.016279
0.012225
0.012225
0.012225
0.016279
0.012225
0.016279
0.012225
0.012225
0.008170
0.016279
0.016279
0.016279
0.012225
0.012225
0.008170
0.020334
0.016279
0.016279
0.012225
0.016279
0.016279
0.012225
0.012225
0.012225
0.016279
0.024388
0.020334
0.008170
0.004116
0.004116
0.000062
0.004116
0.004116
0.008170
0.012225
0.012225
0.008170
0.008170
0.008170
0.008170
0.004116
0.008170
0.012225
0.012225
0.008170
0.012225
0.004116
0.016279
0.028442
0.032497
0.036551
0.036551
0.016279
0.004116
-0.003993
0.000062
0.008170
0.008170
0.004116
0.004116
0.008170
0.000062
0.008170
0.012225
0.008170
0.016279
0.020334
0.008170
0.012225
0.024388
0.012225
0.016279
0.012225
0.060878
0.048714
0.012225
-0.162114
-0.222930
-0.137788
-0.093190
-0.081026
-0.060754
-0.012102
0.000062
0.008170
0.020334
0.020334
0.020334
0.016279
0.020334
0.020334
0.024388
0.020334
0.012225
0.004116
0.012225
0.008170
0.012225
-0.003993
-0.003993
0.000062
-0.008047
0.000062
-0.016156
-0.012102
-0.016156
-0.028319
-0.036428
-0.032374
-0.052646
-0.048591
-0.052646
-0.060754
-0.052646
-0.048591
-0.036428
-0.024265
-0.016156
-0.012102
-0.008047
0.008170
0.008170
0.012225
0.016279
0.008170
0.012225
0.016279
0.020334
0.016279
0.012225
0.016279
0.016279
0.016279
0.008170
0.008170
0.016279
0.016279
0.016279
0.016279
0.008170
0.004116
-0.003993
0.000062
0.004116
0.000062
0.004116
0.004116
0.004116
0.004116
0.008170
0.016279
0.008170
0.008170
0.012225
0.012225
0.016279
0.012225
0.016279
0.016279
0.016279
0.012225
0.016279
0.012225
0.020334
0.020334
0.020334
0.020334
0.020334
0.020334
0.024388
0.020334
0.020334
0.024388
0.016279
0.020334
0.020334
0.036551
0.032497
0.040606
0.044660
0.032497
0.020334
0.012225
0.004116
0.008170
0.012225
0.016279
0.008170
0.012225
0.016279
0.012225
0.008170
0.012225
0.008170
0.012225
0.016279
0.016279
0.012225
0.016279
0.020334
0.020334
0.044660
0.056823
0.024388
-0.105353
-0.231039
-0.186441
-0.101298
-0.085081
-0.060754
-0.016156
0.000062
0.004116
0.008170
0.016279
0.020334
0.016279
0.016279
0.016279
0.016279
0.012225
0.016279
0.012225
0.012225
0.008170
0.000062
0.004116
0.008170
-0.008047
-0.008047
-0.016156
-0.020210
-0.020210
-0.024265
-0.024265
-0.032374
-0.032374
-0.032374
-0.032374
-0.036428
-0.040482
-0.040482
-0.028319
-0.028319
-0.028319
-0.016156
-0.008047
0.000062
0.000062
0.012225
0.004116
0.012225
0.012225
0.012225
0.012225
0.012225
0.012225
0.012225
0.012225
0.016279
0.012225
0.012225
0.008170
0.012225
0.008170
0.012225
0.016279
0.008170
0.008170
0.008170
0.000062
0.004116
0.008170
0.000062
0.000062
0.004116
0.004116
0.008170
0.004116
0.008170
0.012225
0.008170
0.016279
0.012225
0.008170
0.004116
0.008170
0.016279
0.012225
0.016279
0.012225
0.016279
-0.003993
0.012225
0.016279
0.008170
0.012225
0.004116
0.008170
0.012225
0.012225
0.016279
0.008170
0.004116
0.004116
0.004116
0.012225
0.024388
0.032497
0.032497
0.036551
0.028442
0.004116
-0.003993
-0.008047
0.000062
0.008170
-0.003993
0.004116
0.000062
0.000062
-0.008047
0.000062
0.004116
0.008170
0.008170
0.004116
0.008170
0.008170
0.012225
0.008170
0.008170
0.044660
0.056823
0.044660
-0.113462
-0.263474
-0.243202
-0.186441
-0.117516
-0.068863
-0.016156
-0.008047
0.004116
0.012225
0.020334
0.020334
0.012225
0.016279
0.012225
0.012225
0.016279
0.020334
0.012225
0.016279
0.012225
0.012225
0.004116
0.000062
0.000062
0.000062
-0.003993
0.000062
0.000062
-0.003993
-0.012102
-0.016156
-0.020210
-0.024265
-0.028319
-0.028319
-0.028319
-0.024265
-0.024265
-0.024265
-0.016156
-0.008047
-0.003993
0.004116
0.008170
0.016279
0.012225
0.012225
0.016279
0.008170
0.008170
0.012225
0.020334
0.020334
0.016279
0.016279
0.012225
0.012225
0.016279
0.008170
0.012225
0.016279
0.012225
0.012225
0.016279
0.012225
0.008170
0.012225
0.016279
0.008170
0.012225
0.004116
0.000062
0.008170
0.004116
0.008170
-0.003993
0.008170
0.008170
0.012225
0.016279
0.016279
0.004116
0.008170
0.004116
0.008170
0.000062
0.012225
0.008170
0.012225
0.016279
0.016279
0.012225
0.012225
0.016279
0.012225
0.008170
0.016279
0.004116
0.016279
0.012225
0.012225
0.016279
0.020334
0.036551
0.032497
0.036551
0.032497
0.024388
0.012225
-0.003993
-0.008047
-0.003993
0.000062
0.008170
0.008170
0.004116
0.012225
0.000062
0.008170
0.004116
0.004116
0.004116
0.004116
0.004116
0.000062
0.004116
0.004116
0.012225
0.060878
0.064932
0.036551
-0.162114
-0.263474
-0.218876
-0.158060
-0.109407
-0.056700
-0.016156
0.004116
0.020334
0.024388
0.024388
0.016279
0.020334
0.024388
0.024388
0.016279
0.016279
0.016279
0.020334
0.020334
0.012225
0.024388
0.012225
0.012225
0.012225
0.004116
0.008170
-0.008047
-0.003993
-0.008047
-0.020210
-0.024265
-0.020210
-0.028319
-0.028319
-0.028319
-0.036428
-0.032374
-0.032374
-0.028319
-0.024265
-0.012102
-0.012102
-0.003993
0.004116
0.012225
0.004116
0.012225
0.012225
0.008170
0.004116
0.008170
0.004116
0.004116
0.004116
0.004116
0.004116
0.004116
0.012225
0.016279
0.008170
0.004116
0.008170
0.004116
-0.003993
0.000062
0.004116
0.008170
-0.003993
-0.003993
-0.003993
0.000062
0.004116
0.004116
0.000062
0.008170
0.008170
0.004116
0.004116
0.008170
-0.003993
0.008170
0.004116
0.004116
0.008170
0.004116
0.008170
0.000062
0.008170
0.012225
0.004116
0.008170
0.004116
0.020334
0.004116
0.000062
0.004116
0.000062
-0.003993
0.004116
0.008170
0.020334
0.020334
0.028442
0.028442
0.020334
0.000062
-0.003993
0.000062
-0.008047
0.000062
0.004116
0.012225
0.008170
0.004116
0.008170
0.012225
0.012225
0.008170
0.012225
0.004116
0.008170
0.004116
0.012225
0.004116
0.020334
0.060878
0.048714
0.000062
-0.162114
-0.210767
-0.105353
-0.060754
-0.068863
-0.040482
-0.008047
0.004116
0.016279
0.012225
0.024388
0.028442
0.016279
0.008170
0.012225
0.008170
0.016279
0.004116
0.000062
0.008170
0.008170
0.004116
0.000062
-0.003993
-0.003993
-0.003993
-0.008047
-0.012102
-0.016156
-0.024265
-0.028319
-0.024265
-0.036428
-0.040482
-0.044537
-0.040482
-0.044537
-0.048591
-0.040482
-0.036428
-0.028319
-0.012102
-0.008047
0.008170
0.004116
0.012225
0.016279
0.024388
0.028442
0.020334
0.024388
0.024388
0.024388
0.028442
0.024388
0.020334
0.024388
0.032497
0.028442
0.024388
0.028442
0.028442
0.020334
0.024388
0.024388
0.020334
0.024388
0.024388
0.016279
0.016279
0.024388
0.020334
0.008170
0.012225
0.016279
0.012225
0.012225
0.008170
0.012225
0.012225
0.012225
0.008170
0.012225
0.012225
0.016279
0.024388
0.008170
0.012225
0.016279
0.012225
0.012225
0.016279
0.012225
0.016279
0.008170
0.008170
0.012225
0.008170
0.012225
0.020334
0.040606
0.040606
0.044660
0.044660
0.020334
0.008170
0.008170
0.008170
0.004116
0.012225
0.008170
0.008170
0.004116
0.012225
0.008170
0.008170
0.012225
0.008170
0.008170
0.012225
0.008170
0.004116
0.008170
0.008170
0.012225
0.064932
0.044660
-0.008047
-0.206713
-0.271583
-0.186441
-0.125625
-0.101298
-0.048591
-0.008047
0.000062
0.008170
0.004116
0.008170
0.008170
0.012225
0.016279
0.008170
0.012225
0.016279
0.012225
0.016279
0.016279
0.012225
0.012225
0.012225
0.012225
0.004116
0.004116
-0.003993
0.004116
-0.012102
-0.016156
-0.012102
-0.016156
-0.020210
-0.028319
-0.032374
-0.036428
-0.032374
-0.032374
-0.028319
-0.020210
-0.012102
-0.012102
0.000062
0.008170
0.012225
0.012225
0.012225
0.016279
0.024388
0.020334
0.020334
0.016279
0.012225
0.020334
0.016279
0.016279
0.024388
0.020334
0.020334
0.020334
0.016279
0.016279
0.008170
0.012225
0.008170
0.012225
0.012225
0.012225
0.004116
-0.003993
0.008170
0.004116
0.004116
0.000062
-0.003993
0.000062
0.000062
0.000062
0.004116
0.004116
0.000062
0.008170
0.012225
0.012225
0.012225
0.008170
0.004116
-0.003993
0.004116
0.008170
0.004116
0.008170
0.004116
0.008170
0.000062
0.000062
0.004116
0.012225
0.004116
0.008170
0.008170
0.008170
0.012225
0.020334
0.028442
0.028442
0.020334
0.020334
0.004116
-0.003993
-0.016156
-0.008047
-0.008047
-0.003993
0.004116
0.000062
0.004116
0.000062
0.004116
0.016279
0.008170
0.012225
0.016279
0.016279
0.016279
0.016279
0.012225
0.012225
0.064932
0.064932
0.028442
-0.162114
-0.263474
-0.214821
-0.162114
-0.109407
-0.056700
-0.012102
-0.003993
0.016279
0.016279
0.020334
0.016279
0.016279
0.016279
0.008170
0.012225
0.012225
0.012225
0.012225
0.000062
0.012225
0.008170
0.008170
0.004116
0.000062
0.004116
0.000062
-0.003993
0.000062
-0.008047
-0.012102
-0.020210
-0.020210
-0.028319
-0.036428
-0.032374
-0.036428
-0.036428
-0.036428
-0.020210
-0.016156
-0.012102
-0.003993
0.004116
0.000062
0.004116
0.008170
0.016279
0.016279
0.012225
0.012225
0.016279
0.008170
0.008170
0.024388
0.020334
0.016279
0.024388
0.016279
0.020334
0.020334
0.008170
0.008170
0.012225
0.012225
0.012225
0.012225
0.016279
0.012225
0.004116
0.008170
0.012225
0.016279
0.016279
0.016279
0.004116
0.008170
0.008170
0.004116
0.008170
0.012225
0.020334
0.016279
0.008170
0.012225
0.012225
0.016279
0.016279
0.016279
0.012225
0.008170
0.020334
0.020334
0.020334
0.020334
0.008170
0.012225
0.020334
0.012225
0.004116
0.008170
0.020334
0.032497
0.028442
0.032497
0.032497
0.012225
0.000062
-0.003993
-0.003993
-0.003993
-0.003993
0.000062
0.012225
0.012225
0.000062
0.004116
0.008170
0.012225
0.016279
0.004116
0.012225
0.020334
0.016279
0.016279
0.016279
0.044660
0.056823
0.040606
-0.097244
-0.222930
-0.186441
-0.117516
-0.085081
-0.064809
-0.016156
0.008170
0.008170
0.016279
0.016279
0.020334
0.016279
0.012225
0.012225
0.008170
0.008170
0.012225
0.004116
0.004116
0.008170
0.012225
0.004116
-0.008047
0.000062
-0.008047
-0.012102
-0.024265
-0.020210
-0.020210
-0.024265
-0.032374
-0.036428
-0.044537
-0.048591
-0.040482
-0.048591
-0.052646
-0.052646
-0.040482
-0.036428
-0.020210
-0.016156
-0.003993
0.004116
0.004116
0.004116
0.012225
0.012225
0.016279
0.020334
0.012225
0.020334
0.016279
0.024388
0.020334
0.024388
0.024388
0.020334
0.020334
0.012225
0.012225
0.004116
0.008170
0.012225
0.012225
0.012225
0.008170
0.008170
0.004116
0.016279
0.004116
0.008170
-0.003993
0.008170
0.008170
0.004116
0.012225
0.008170
0.008170
0.016279
0.012225
0.016279
0.008170
0.004116
0.008170
0.012225
0.012225
0.012225
0.020334
0.024388
0.020334
0.020334
0.024388
0.016279
0.024388
0.016279
0.012225
0.028442
0.036551
0.036551
0.040606
0.032497
0.008170
0.004116
0.000062
0.008170
0.004116
0.012225
0.020334
0.020334
0.012225
0.012225
0.008170
0.016279
0.008170
0.008170
0.012225
0.012225
0.020334
0.020334
0.012225
0.012225
0.052769
0.044660
0.012225
-0.117516
-0.218876
-0.149951
-0.072918
-0.068863
-0.064809
-0.024265
-0.003993
0.004116
0.004116
0.008170
0.012225
0.016279
0.012225
0.016279
0.012225
0.020334
0.020334
0.008170
0.016279
0.012225
0.008170
0.004116
0.016279
0.008170
0.000062
-0.012102
-0.003993
-0.008047
-0.016156
-0.020210
-0.028319
-0.032374
-0.032374
-0.044537
-0.048591
-0.040482
-0.044537
-0.036428
-0.020210
-0.024265
-0.008047
-0.003993
-0.003993
-0.003993
0.004116
0.008170
0.016279
0.012225
0.012225
0.012225
0.008170
0.008170
0.012225
0.020334
0.016279
0.008170
0.020334
0.016279
0.004116
0.012225
0.008170
0.008170
0.008170
0.004116
-0.008047
0.008170
0.000062
0.000062
0.004116
0.008170
0.004116
0.000062
0.000062
0.000062
0.000062
0.000062
0.004116
-0.003993
0.008170
0.004116
0.000062
0.016279
0.012225
0.008170
0.008170
0.008170
0.012225
0.008170
0.008170
0.012225
0.016279
0.012225
0.008170
0.016279
0.016279
0.012225
0.012225
0.008170
0.012225
0.008170
0.016279
0.028442
0.028442
0.032497
0.028442
0.024388
0.004116
0.000062
-0.012102
0.004116
0.004116
0.004116
0.012225
0.008170
0.008170
0.008170
0.004116
0.000062
0.008170
0.016279
0.016279
0.012225
0.012225
0.012225
0.016279
0.004116
0.056823
0.056823
0.028442
-0.162114
-0.283746
-0.239148
-0.182386
-0.121570
-0.068863
-0.016156
-0.003993
0.008170
0.008170
0.016279
0.024388
0.020334
0.020334
0.024388
0.028442
0.024388
0.012225
0.020334
0.016279
0.020334
0.020334
0.012225
0.016279
0.016279
0.004116
0.008170
0.004116
0.004116
-0.003993
-0.003993
-0.012102
-0.024265
-0.020210
-0.020210
-0.020210
-0.028319
-0.032374
-0.028319
-0.032374
-0.020210
-0.012102
-0.008047
0.000062
0.004116
0.012225
0.012225
0.020334
0.016279
0.016279
0.016279
0.016279
0.012225
0.008170
0.008170
0.012225
0.012225
0.012225
0.008170
0.008170
0.012225
0.012225
0.012225
0.020334
0.016279
0.020334
0.020334
0.012225
0.020334
0.012225
0.004116
0.004116
0.008170
0.004116
0.016279
0.012225
0.008170
0.000062
0.008170
0.008170
0.004116
0.004116
0.000062
0.008170
0.000062
0.004116
0.004116
0.004116
0.012225
0.008170
0.016279
0.008170
0.008170
0.008170
0.008170
0.012225
0.008170
0.008170
0.008170
0.004116
0.016279
0.016279
0.020334
0.028442
0.032497
0.032497
0.024388
0.016279
0.000062
0.000062
0.000062
0.000062
0.004116
0.012225
0.008170
0.008170
0.004116
0.004116
0.008170
0.012225
0.012225
0.012225
0.008170
0.008170
0.012225
0.012225
0.012225
0.008170
0.060878
0.048714
0.016279
-0.182386
-0.271583
-0.214821
-0.145897
-0.109407
-0.056700
-0.016156
0.000062
0.012225
0.016279
0.020334
0.020334
0.024388
0.020334
0.020334
0.016279
0.024388
0.012225
0.020334
0.012225
0.012225
0.012225
0.016279
0.012225
0.008170
0.008170
0.000062
0.008170
-0.003993
-0.003993
-0.012102
-0.016156
-0.020210
-0.032374
-0.036428
-0.040482
-0.040482
-0.040482
-0.028319
-0.020210
-0.016156
-0.016156
-0.008047
0.004116
0.004116
0.008170
0.016279
0.016279
0.012225
0.012225
0.012225
0.012225
0.016279
0.016279
0.012225
0.016279
0.028442
0.020334
0.020334
0.016279
0.020334
0.012225
0.020334
0.020334
0.016279
0.008170
0.008170
0.008170
0.008170
0.008170
0.012225
0.012225
0.000062
0.000062
0.008170
0.008170
0.012225
0.012225
0.016279
0.008170
0.008170
0.008170
0.016279
0.012225
0.004116
0.004116
0.012225
0.016279
0.012225
0.008170
0.000062
0.012225
0.012225
0.012225
0.008170
0.012225
0.016279
0.012225
0.008170
0.016279
0.020334
0.032497
0.040606
0.044660
0.032497
0.016279
0.000062
0.000062
-0.003993
-0.003993
0.000062
0.000062
0.008170
0.008170
0.000062
0.000062
0.004116
0.012225
0.004116
0.012225
0.008170
0.004116
0.008170
0.004116
0.004116
0.012225
0.056823
0.048714
0.016279
-0.141842
-0.206713
-0.113462
-0.072918
-0.064809
-0.048591
-0.016156
0.000062
0.012225
0.016279
0.016279
0.016279
0.016279
0.008170
0.020334
0.020334
0.024388
0.016279
0.020334
0.016279
0.012225
0.012225
0.008170
0.004116
-0.003993
-0.008047
-0.008047
-0.003993
-0.012102
-0.024265
-0.020210
-0.036428
-0.032374
-0.036428
-0.028319
-0.044537
-0.048591
-0.044537
-0.036428
-0.028319
-0.020210
-0.012102
0.000062
0.004116
0.012225
0.012225
0.020334
0.028442
0.028442
0.024388
0.028442
0.020334
0.028442
0.024388
0.020334
0.020334
0.012225
0.012225
0.020334
0.016279
0.016279
0.008170
0.012225
0.020334
0.008170
0.008170
0.004116
0.004116
0.000062
0.004116
0.008170
0.008170
0.008170
0.000062
0.004116
0.004116
0.008170
0.008170
0.008170
0.008170
0.004116
0.012225
0.012225
0.012225
0.016279
0.012225
0.008170
0.012225
0.008170
0.012225
0.012225
0.008170
0.012225
0.000062
0.012225
0.012225
0.012225
0.012225
0.016279
0.028442
0.028442
0.028442
0.036551
0.028442
0.016279
0.000062
0.004116
0.004116
0.000062
-0.003993
0.000062
0.008170
0.004116
0.008170
0.016279
0.008170
0.016279
0.012225
0.012225
0.016279
0.012225
0.016279
0.004116
0.008170
0.024388
0.052769
0.032497
-0.089135
-0.243202
-0.243202
-0.166169
-0.113462
-0.076972
-0.016156
0.000062
0.016279
0.016279
0.016279
0.012225
0.016279
0.012225
0.016279
0.012225
0.012225
0.008170
0.004116
0.000062
0.008170
0.004116
0.004116
0.008170
0.000062
0.000062
-0.003993
-0.008047
-0.012102
-0.024265
-0.020210
-0.020210
-0.020210
-0.024265
-0.028319
-0.040482
-0.040482
-0.036428
-0.028319
-0.028319
-0.024265
-0.016156
0.000062
0.000062
0.008170
0.008170
0.016279
0.016279
0.008170
0.008170
0.012225
0.012225
0.012225
0.008170
0.012225
0.008170
0.012225
0.008170
0.008170
0.008170
0.008170
0.016279
0.020334
0.016279
0.016279
0.016279
0.008170
0.012225
0.012225
0.020334
0.020334
0.012225
0.012225
0.008170
0.008170
0.008170
0.008170
0.016279
0.012225
0.008170
0.008170
0.000062
0.008170
0.012225
0.016279
0.012225
0.008170
0.012225
0.008170
0.016279
0.016279
