0.016279
0.008170
0.032497
0.024388
0.016279
0.040606
0.012225
0.012225
0.012225
0.000062
0.016279
0.032497
0.040606
0.064932
0.024388
-0.133734
-0.458085
-0.644588
-0.470249
-0.247257
-0.101298
-0.016156
0.016279
0.016279
0.024388
0.036551
0.024388
0.016279
0.020334
0.028442
0.020334
0.016279
0.032497
0.020334
0.024388
0.028442
0.024388
0.024388
0.016279
0.020334
0.024388
0.032497
0.036551
0.020334
0.020334
0.032497
0.024388
0.020334
0.024388
0.012225
0.024388
0.016279
0.004116
0.016279
0.016279
0.008170
0.000062
-0.003993
-0.008047
0.000062
0.012225
0.000062
0.004116
0.000062
0.000062
0.000062
-0.003993
0.000062
0.008170
0.008170
0.000062
0.024388
0.032497
0.028442
0.036551
0.024388
0.032497
0.012225
0.036551
0.032497
0.032497
0.048714
0.040606
0.032497
0.032497
0.048714
0.032497
0.060878
0.056823
0.052769
0.032497
0.032497
0.020334
0.024388
0.093313
0.036551
-0.044537
-0.271583
-0.567554
-0.547282
-0.324290
-0.133734
-0.036428
-0.003993
0.020334
0.064932
0.052769
0.012225
0.004116
0.000062
0.012225
0.020334
0.008170
0.028442
0.024388
0.024388
0.040606
0.008170
0.028442
0.000062
0.008170
0.008170
0.012225
0.012225
0.024388
0.020334
0.020334
0.012225
0.000062
0.000062
0.008170
0.000062
0.000062
0.000062
0.000062
-0.008047
-0.012102
0.000062
0.000062
-0.003993
-0.003993
0.000062
0.000062
0.000062
0.004116
0.000062
0.004116
0.016279
0.016279
0.020334
0.012225
0.020334
0.020334
0.016279
0.016279
0.032497
0.016279
0.004116
0.008170
0.008170
0.012225
0.004116
0.008170
0.004116
0.000062
0.008170
0.020334
0.036551
0.036551
0.016279
0.028442
0.036551
0.044660
0.032497
0.020334
0.044660
0.036551
0.024388
0.032497
0.056823
0.036551
0.016279
0.000062
0.000062
0.000062
0.004116
-0.003993
0.000062
0.004116
0.000062
0.008170
0.008170
0.020334
0.024388
0.008170
0.012225
0.012225
-0.003993
0.000062
0.016279
0.000062
0.004116
0.000062
0.004116
0.008170
0.012225
0.000062
0.020334
0.004116
0.012225
0.012225
0.008170
0.000062
0.004116
0.032497
0.036551
0.000062
-0.170223
-0.437813
-0.620261
-0.445922
-0.210767
-0.081026
-0.040482
0.008170
0.016279
0.012225
0.004116
0.008170
0.032497
0.020334
0.016279
0.028442
0.032497
0.028442
0.032497
0.028442
0.032497
0.028442
0.020334
0.016279
0.032497
0.008170
0.020334
0.016279
0.008170
-0.003993
0.004116
0.004116
0.000062
0.000062
0.004116
0.000062
0.004116
0.012225
0.000062
0.000062
0.000062
-0.008047
0.000062
0.000062
-0.003993
0.000062
-0.003993
0.000062
-0.003993
-0.008047
0.000062
0.000062
0.000062
0.012225
0.008170
0.000062
0.008170
0.008170
0.008170
0.016279
0.012225
0.020334
0.000062
0.012225
0.000062
0.016279
0.000062
0.012225
0.028442
0.020334
0.000062
-0.012102
0.000062
0.016279
0.000062
-0.012102
0.052769
0.008170
-0.008047
0.008170
0.000062
0.024388
0.016279
0.000062
0.012225
0.008170
0.000062
0.028442
0.016279
0.008170
0.028442
0.032497
0.052769
0.020334
-0.048591
-0.287801
-0.579717
-0.559445
-0.332399
-0.137788
-0.040482
0.024388
0.040606
0.048714
0.044660
0.036551
0.036551
0.036551
0.044660
0.048714
0.048714
0.052769
0.044660
0.040606
0.040606
0.044660
0.044660
0.036551
0.040606
0.044660
0.044660
0.052769
0.060878
0.036551
0.040606
0.040606
0.056823
0.036551
0.016279
0.024388
0.016279
0.016279
0.012225
0.000062
0.008170
0.000062
0.008170
0.024388
0.020334
0.024388
0.012225
0.008170
0.032497
0.040606
0.032497
0.024388
0.028442
0.040606
0.044660
0.056823
0.044660
0.032497
0.036551
0.048714
0.004116
0.024388
0.016279
0.044660
0.024388
0.028442
0.020334
0.020334
0.044660
0.089258
0.044660
-0.068863
-0.352671
-0.575663
-0.429705
-0.194550
-0.068863
-0.003993
0.044660
0.036551
0.036551
0.032497
0.020334
0.028442
0.024388
0.032497
0.036551
0.024388
0.028442
0.016279
0.004116
0.036551
0.004116
0.016279
0.012225
0.004116
0.032497
0.004116
0.020334
0.016279
0.028442
0.008170
0.008170
0.020334
0.020334
0.000062
0.000062
0.000062
0.000062
0.000062
0.004116
0.008170
0.004116
0.020334
0.016279
0.012225
0.016279
0.024388
0.012225
0.024388
0.016279
0.008170
0.008170
0.024388
0.008170
0.004116
0.004116
0.016279
0.020334
0.024388
0.028442
0.044660
0.020334
0.028442
0.024388
0.040606
0.016279
0.040606
0.048714
0.048714
0.040606
0.040606
0.036551
0.036551
0.036551
0.032497
0.040606
0.040606
0.032497
0.040606
0.040606
0.064932
0.048714
0.040606
0.060878
0.048714
0.044660
0.036551
0.044660
0.036551
0.052769
0.036551
0.036551
0.032497
0.024388
0.020334
0.032497
0.028442
0.040606
0.068986
0.077095
0.028442
-0.109407
-0.372943
-0.502684
-0.352671
-0.170223
-0.064809
0.000062
0.044660
0.028442
0.024388
0.024388
0.032497
0.024388
0.016279
0.016279
0.012225
0.008170
0.012225
0.028442
0.012225
0.024388
0.036551
0.020334
0.040606
0.004116
0.032497
0.016279
0.028442
0.004116
0.000062
0.012225
0.008170
0.004116
0.004116
0.004116
0.000062
0.012225
0.016279
0.004116
0.016279
0.016279
0.032497
0.028442
0.024388
0.024388
0.052769
0.056823
0.068986
0.064932
0.044660
0.040606
0.028442
0.032497
0.032497
0.012225
0.004116
0.000062
0.004116
-0.024265
-0.044537
-0.052646
-0.081026
-0.068863
-0.068863
-0.068863
-0.056700
-0.064809
-0.056700
-0.060754
-0.048591
-0.024265
-0.024265
-0.048591
-0.020210
-0.012102
-0.020210
-0.016156
0.000062
-0.008047
-0.003993
-0.003993
0.000062
0.016279
0.032497
0.000062
-0.016156
0.008170
0.000062
0.008170
-0.020210
-0.036428
-0.020210
-0.012102
-0.003993
-0.008047
-0.008047
-0.020210
-0.008047
0.000062
-0.003993
0.004116
0.004116
0.008170
0.008170
0.024388
0.024388
0.028442
0.040606
0.028442
0.040606
0.040606
0.040606
0.060878
0.016279
0.008170
0.004116
0.000062
0.008170
0.016279
0.016279
0.020334
0.000062
-0.052646
-0.226985
-0.340508
-0.271583
-0.178332
-0.097244
-0.044537
0.000062
0.040606
0.073041
0.068986
0.101422
0.093313
0.081150
0.089258
0.089258
0.068986
0.077095
0.085204
0.040606
0.020334
0.044660
0.000062
0.012225
0.004116
0.004116
0.004116
0.004116
0.004116
0.020334
0.024388
0.020334
0.020334
0.000062
0.004116
0.000062
-0.020210
-0.028319
-0.044537
-0.064809
-0.072918
-0.097244
-0.117516
-0.113462
-0.125625
-0.125625
-0.109407
-0.068863
-0.008047
0.024388
0.044660
0.040606
0.060878
0.081150
0.085204
0.093313
0.101422
0.109530
0.125748
0.117639
0.125748
0.146020
0.133857
0.117639
0.117639
0.146020
0.101422
0.016279
-0.012102
-0.003993
0.000062
0.000062
-0.028319
-0.032374
-0.044537
-0.048591
-0.056700
-0.060754
-0.072918
-0.064809
-0.064809
-0.072918
-0.044537
-0.012102
0.000062
-0.003993
-0.020210
-0.032374
-0.012102
0.000062
0.000062
0.036551
0.036551
0.020334
-0.012102
-0.064809
-0.089135
-0.113462
-0.113462
-0.158060
-0.210767
-0.352671
-0.514847
-0.482412
-0.393215
-0.308073
-0.218876
-0.141842
-0.097244
-0.085081
-0.081026
-0.125625
-0.121570
-0.093190
-0.064809
-0.052646
-0.028319
0.000062
0.012225
0.032497
0.036551
0.032497
0.040606
0.020334
0.004116
0.032497
0.056823
0.121693
0.194673
0.243325
0.259543
0.210890
0.154129
0.077095
0.004116
-0.040482
-0.089135
-0.093190
-0.081026
-0.048591
-0.012102
0.008170
0.004116
0.028442
0.040606
0.036551
0.056823
0.064932
0.060878
0.036551
0.016279
0.000062
0.000062
0.008170
0.004116
0.024388
0.036551
0.064932
0.060878
0.060878
0.064932
0.048714
0.052769
0.044660
0.052769
0.040606
0.036551
0.032497
0.016279
0.020334
0.036551
0.064932
0.077095
0.052769
0.056823
0.056823
0.060878
0.077095
0.032497
-0.040482
-0.162114
-0.235093
-0.154006
-0.085081
-0.032374
0.012225
0.060878
0.068986
0.097367
0.097367
0.081150
0.073041
0.073041
0.048714
0.040606
0.040606
0.024388
0.028442
0.028442
0.028442
0.020334
0.028442
0.028442
0.012225
0.016279
0.020334
0.020334
0.000062
-0.012102
-0.016156
-0.028319
-0.040482
-0.052646
-0.048591
-0.024265
0.004116
0.004116
0.024388
0.024388
0.028442
0.000062
0.000062
0.000062
-0.040482
-0.056700
-0.052646
-0.040482
-0.028319
-0.024265
-0.024265
-0.008047
-0.003993
-0.008047
-0.003993
-0.020210
-0.016156
0.000062
0.020334
0.016279
0.016279
0.024388
0.004116
0.036551
0.028442
0.032497
0.016279
0.012225
0.004116
0.008170
0.000062
0.004116
0.032497
0.052769
0.068986
0.089258
0.117639
0.117639
0.137911
0.158183
0.133857
0.113585
0.113585
0.105476
0.077095
0.081150
0.052769
0.052769
0.044660
0.028442
0.036551
0.081150
0.048714
0.028442
-0.081026
-0.186441
-0.190495
-0.097244
-0.032374
0.004116
0.040606
0.060878
0.089258
0.073041
0.060878
0.060878
0.044660
0.085204
0.028442
0.016279
0.004116
0.024388
-0.012102
-0.003993
0.004116
0.012225
0.052769
0.052769
0.020334
0.032497
0.040606
0.020334
0.024388
0.036551
0.040606
0.052769
0.064932
0.060878
0.081150
0.085204
0.101422
0.077095
0.081150
0.085204
0.068986
0.060878
0.040606
0.032497
0.020334
0.024388
0.000062
0.000062
0.000062
0.000062
0.000062
0.000062
0.016279
0.032497
0.052769
0.064932
0.068986
0.077095
0.068986
0.085204
0.073041
0.064932
0.052769
0.040606
0.044660
0.073041
0.056823
0.068986
0.085204
0.077095
0.077095
0.097367
0.097367
0.077095
0.101422
0.097367
0.044660
-0.060754
-0.170223
-0.182386
-0.113462
-0.012102
0.056823
0.125748
0.186564
0.223053
0.243325
0.190618
0.198727
0.206836
0.186564
0.194673
0.133857
0.113585
0.158183
0.085204
0.032497
0.016279
0.016279
0.004116
0.000062
-0.008047
-0.003993
-0.044537
-0.036428
0.012225
0.089258
0.146020
0.190618
0.206836
0.227108
0.247380
0.247380
0.251434
0.227108
0.206836
0.214945
0.206836
0.239271
0.255489
0.271706
0.255489
0.206836
0.174401
0.085204
-0.105353
-0.255365
-0.425650
-0.502684
-0.750002
-0.794600
-0.275637
0.162237
0.154129
0.137911
0.154129
0.146020
0.186564
0.194673
0.218999
0.243325
0.174401
-0.117516
-0.198604
-0.101298
0.093313
0.267652
0.271706
0.275761
0.251434
0.291978
0.271706
0.308196
0.291978
0.308196
0.356849
0.206836
0.068986
0.008170
-0.101298
-0.182386
-0.255365
-0.299964
-0.348617
-0.433759
-0.470249
-0.441868
-0.409433
-0.368889
-0.336453
-0.332399
-0.324290
-0.324290
-0.320236
-0.324290
-0.308073
-0.336453
-0.352671
-0.368889
-0.368889
-0.356725
-0.352671
-0.348617
-0.336453
-0.340508
-0.344562
-0.324290
-0.324290
-0.312127
-0.304018
-0.279692
-0.198604
-0.178332
-0.226985
-0.210767
-0.222930
-0.145897
0.056823
0.239271
-0.202658
-0.348617
-0.287801
-0.182386
-0.109407
0.004116
0.052769
0.048714
-0.101298
-0.239148
-0.255365
-0.226985
-0.259420
-0.202658
-0.032374
0.077095
0.105476
0.000062
-0.145897
-0.239148
-0.218876
-0.162114
-0.097244
-0.016156
0.048714
0.052769
0.008170
-0.048591
-0.137788
-0.166169
-0.182386
-0.162114
-0.202658
-0.182386
-0.141842
-0.097244
-0.020210
-0.003993
0.044660
0.064932
0.064932
0.097367
0.137911
0.137911
0.133857
0.101422
0.056823
0.040606
0.032497
0.008170
-0.024265
-0.003993
-0.012102
-0.028319
-0.024265
-0.020210
-0.024265
-0.024265
-0.020210
0.000062
0.012225
0.016279
0.004116
-0.048591
-0.117516
-0.226985
-0.231039
-0.214821
-0.210767
-0.170223
-0.158060
-0.133734
-0.097244
-0.093190
-0.085081
-0.044537
-0.036428
-0.008047
-0.040482
-0.068863
-0.016156
0.028442
0.056823
-0.012102
-0.231039
-0.397269
-0.417541
-0.283746
-0.186441
-0.121570
-0.093190
-0.093190
-0.113462
-0.113462
-0.076972
-0.036428
-0.003993
0.004116
0.016279
0.012225
0.032497
0.004116
-0.032374
-0.056700
-0.048591
-0.056700
-0.052646
-0.060754
-0.072918
-0.072918
-0.072918
-0.076972
-0.085081
-0.076972
-0.076972
-0.072918
-0.032374
0.012225
0.024388
0.012225
0.000062
-0.012102
-0.020210
-0.016156
-0.024265
-0.036428
-0.040482
-0.003993
0.036551
0.093313
0.117639
0.117639
0.129802
0.146020
0.141965
0.154129
0.146020
0.109530
0.093313
0.064932
0.056823
0.085204
0.133857
0.190618
0.206836
0.214945
0.223053
0.223053
0.190618
0.178455
0.170346
0.162237
0.146020
0.141965
0.125748
0.109530
0.089258
0.064932
0.060878
0.044660
0.048714
0.060878
0.068986
0.093313
0.097367
0.097367
0.109530
0.109530
0.109530
0.113585
0.105476
0.113585
0.109530
0.105476
0.113585
0.133857
0.105476
0.101422
0.105476
0.158183
0.109530
0.089258
0.064932
0.016279
0.000062
-0.003993
0.000062
-0.012102
-0.008047
-0.020210
-0.020210
-0.028319
-0.036428
-0.048591
-0.044537
-0.044537
-0.032374
-0.056700
-0.089135
-0.198604
-0.332399
-0.368889
-0.271583
-0.206713
-0.149951
-0.081026
-0.028319
-0.016156
0.020334
0.012225
0.004116
0.028442
0.024388
0.024388
0.016279
0.000062
-0.012102
0.000062
-0.003993
-0.028319
-0.056700
-0.081026
-0.076972
-0.064809
-0.064809
-0.052646
-0.056700
-0.044537
-0.060754
-0.044537
-0.008047
0.085204
0.105476
0.093313
0.081150
0.048714
0.028442
0.024388
0.024388
0.004116
0.000062
-0.008047
-0.020210
-0.020210
-0.003993
-0.008047
-0.028319
-0.040482
-0.040482
-0.040482
-0.008047
0.000062
0.012225
0.016279
0.040606
0.024388
0.016279
0.012225
0.056823
0.036551
0.028442
0.016279
0.020334
0.040606
0.024388
0.020334
0.024388
0.040606
0.056823
0.064932
0.068986
0.064932
0.068986
0.077095
0.089258
0.085204
0.081150
0.052769
0.032497
0.012225
0.008170
-0.016156
-0.024265
-0.040482
-0.048591
-0.040482
-0.024265
0.004116
0.040606
0.052769
0.048714
0.024388
-0.101298
-0.235093
-0.206713
-0.113462
-0.052646
-0.012102
0.028442
0.036551
0.052769
0.064932
0.064932
0.089258
0.089258
0.101422
0.113585
0.097367
0.085204
0.085204
0.085204
0.081150
0.089258
0.081150
0.073041
0.077095
0.064932
0.056823
0.052769
0.064932
0.064932
0.060878
0.056823
0.048714
0.044660
0.032497
0.024388
0.032497
0.020334
0.032497
0.012225
0.012225
0.012225
0.012225
0.016279
0.012225
0.024388
0.028442
0.028442
0.036551
0.052769
0.044660
0.032497
0.024388
0.040606
0.056823
0.048714
0.052769
0.040606
0.056823
0.064932
0.056823
0.044660
0.036551
0.028442
0.052769
0.097367
0.137911
0.109530
0.081150
0.073041
0.081150
0.097367
0.141965
0.141965
0.146020
0.170346
0.198727
0.194673
0.182509
0.158183
0.150074
0.068986
0.000062
-0.137788
-0.259420
-0.218876
-0.158060
-0.109407
-0.028319
0.000062
0.000062
-0.012102
-0.008047
-0.008047
0.000062
0.012225
0.032497
0.056823
0.064932
0.085204
0.060878
0.056823
0.044660
0.008170
-0.032374
-0.064809
-0.064809
-0.024265
-0.024265
-0.060754
-0.056700
-0.048591
-0.040482
-0.036428
-0.020210
-0.016156
-0.056700
-0.072918
-0.064809
-0.125625
-0.016156
0.064932
0.081150
0.068986
0.060878
0.048714
0.020334
0.012225
-0.012102
0.000062
0.016279
0.020334
0.004116
0.000062
-0.032374
-0.089135
-0.145897
-0.174278
-0.231039
-0.291855
-0.271583
-0.231039
-0.190495
-0.170223
-0.137788
-0.093190
-0.085081
-0.068863
-0.056700
-0.036428
0.004116
0.028442
0.012225
-0.024265
-0.060754
-0.081026
-0.064809
-0.056700
-0.064809
-0.064809
-0.020210
-0.008047
0.000062
0.016279
0.016279
0.020334
0.020334
0.036551
0.060878
-0.036428
-0.158060
-0.125625
-0.060754
0.000062
0.012225
0.040606
0.093313
0.121693
0.121693
0.089258
0.032497
-0.044537
-0.048591
0.000062
0.000062
0.000062
0.008170
0.004116
-0.012102
-0.044537
-0.044537
-0.056700
-0.040482
-0.012102
-0.012102
-0.016156
-0.028319
-0.036428
-0.048591
-0.056700
-0.048591
-0.020210
0.000062
0.052769
0.129802
0.174401
0.166292
0.146020
0.077095
0.004116
-0.008047
0.085204
0.356849
0.470372
0.474426
0.470372
0.454154
0.409556
0.348740
0.263597
0.150074
0.004116
-0.141842
-0.222930
-0.235093
-0.174278
-0.133734
-0.117516
-0.048591
0.000062
0.028442
0.024388
0.048714
0.068986
0.125748
0.141965
0.113585
0.085204
0.044660
0.028442
0.024388
0.024388
0.016279
0.008170
0.012225
0.012225
0.024388
0.032497
0.036551
0.040606
0.028442
0.028442
0.032497
0.028442
0.016279
0.016279
0.000062
0.000062
-0.016156
-0.016156
-0.003993
-0.028319
-0.008047
-0.028319
-0.003993
0.016279
0.032497
0.036551
0.032497
0.032497
0.048714
0.048714
0.060878
0.068986
0.048714
0.048714
0.024388
0.000062
-0.040482
-0.076972
-0.101298
-0.109407
-0.117516
-0.162114
-0.174278
-0.295909
-0.401324
-0.340508
-0.255365
-0.162114
-0.089135
-0.028319
0.000062
0.000062
-0.016156
-0.012102
0.000062
-0.020210
-0.024265
-0.020210
-0.024265
-0.012102
-0.012102
-0.016156
-0.012102
-0.032374
-0.064809
-0.085081
-0.089135
-0.076972
-0.072918
-0.093190
-0.056700
-0.032374
-0.008047
0.000062
0.016279
0.012225
0.016279
0.020334
0.020334
-0.003993
0.008170
-0.008047
-0.024265
-0.020210
-0.024265
-0.028319
-0.032374
-0.036428
-0.032374
-0.008047
-0.008047
0.012225
0.028442
0.036551
0.073041
0.105476
0.097367
0.089258
0.089258
0.113585
0.113585
0.089258
0.060878
0.097367
0.113585
0.117639
0.113585
0.060878
-0.016156
-0.093190
-0.154006
-0.218876
-0.271583
-0.263474
-0.239148
-0.235093
-0.226985
-0.251311
-0.251311
-0.214821
-0.093190
0.000062
0.040606
0.073041
0.085204
0.109530
0.121693
0.125748
0.109530
0.093313
0.101422
0.077095
0.085204
0.085204
0.077095
0.081150
0.068986
0.048714
0.052769
0.048714
0.056823
0.068986
0.048714
0.040606
0.012225
-0.020210
-0.036428
0.000062
0.024388
0.000062
-0.056700
-0.170223
-0.226985
-0.113462
-0.032374
0.016279
0.064932
0.101422
0.113585
0.117639
0.109530
0.101422
0.105476
0.097367
0.105476
0.117639
0.105476
0.113585
0.109530
0.117639
0.125748
0.113585
0.101422
0.105476
0.089258
0.068986
0.052769
0.048714
0.044660
0.052769
0.040606
0.024388
0.012225
0.012225
-0.008047
-0.020210
-0.016156
-0.020210
-0.016156
-0.016156
-0.012102
-0.016156
-0.016156
-0.024265
-0.028319
-0.024265
-0.020210
-0.016156
-0.032374
-0.020210
-0.036428
-0.044537
-0.052646
-0.056700
-0.060754
-0.064809
-0.068863
-0.076972
-0.072918
-0.064809
-0.052646
-0.060754
-0.064809
-0.048591
-0.040482
-0.056700
-0.044537
-0.056700
-0.044537
-0.036428
-0.024265
-0.024265
-0.032374
-0.028319
-0.028319
-0.028319
-0.028319
-0.020210
-0.032374
-0.028319
-0.036428
-0.048591
-0.048591
-0.048591
-0.040482
-0.036428
-0.056700
-0.068863
-0.060754
-0.068863
-0.068863
-0.068863
-0.076972
-0.064809
-0.068863
-0.068863
-0.060754
-0.072918
-0.064809
-0.056700
-0.060754
-0.052646
-0.064809
-0.008047
-0.068863
-0.089135
-0.222930
-0.304018
-0.255365
-0.158060
-0.133734
-0.093190
-0.036428
-0.012102
-0.003993
0.000062
0.012225
0.028442
0.028442
0.028442
0.032497
0.036551
0.068986
0.068986
0.064932
0.073041
0.109530
0.064932
0.093313
0.073041
0.056823
0.044660
0.048714
0.020334
0.020334
0.032497
0.004116
0.012225
0.000062
-0.028319
-0.024265
-0.020210
-0.003993
0.028442
0.024388
-0.024265
0.008170
0.048714
0.117639
0.141965
0.186564
0.158183
0.085204
0.064932
0.077095
0.097367
0.097367
0.077095
0.052769
0.044660
0.024388
-0.068863
-0.056700
0.032497
0.093313
0.263597
0.259543
0.206836
0.174401
0.223053
0.300087
0.336577
0.304141
0.348740
0.275761
0.259543
0.194673
0.093313
0.068986
0.056823
0.000062
-0.076972
-0.105353
-0.101298
-0.117516
-0.137788
-0.137788
-0.097244
-0.121570
-0.141842
-0.113462
-0.113462
-0.117516
-0.141842
-0.101298
-0.072918
-0.056700
-0.028319
-0.125625
-0.081026
-0.032374
-0.056700
-0.097244
-0.243202
-0.360780
-0.243202
-0.085081
0.000062
0.048714
0.036551
0.028442
0.085204
0.077095
0.048714
0.012225
0.089258
0.308196
0.527133
0.660928
0.717690
1.110966
0.977171
0.794723
0.656874
0.450100
0.243325
0.117639
-0.085081
-0.198604
-0.186441
-0.194550
-0.235093
-0.304018
-0.385106
-0.437813
-0.486466
-0.527010
-0.502684
-0.506738
-0.458085
-0.441868
-0.401324
-0.344562
-0.332399
-0.324290
-0.304018
-0.304018
-0.287801
-0.263474
-0.255365
-0.247257
-0.247257
-0.239148
-0.251311
-0.255365
-0.235093
-0.206713
-0.089135
0.040606
-0.113462
-0.133734
0.154129
0.454154
0.429828
0.194673
-0.174278
-0.449977
-0.527010
-0.628370
-0.681077
-0.672968
-0.668914
-0.640533
-0.567554
-0.409433
-0.222930
-0.036428
0.036551
0.105476
0.093313
0.068986
0.077095
0.113585
0.125748
0.121693
0.141965
0.166292
0.150074
0.125748
0.068986
0.008170
0.000062
0.000062
0.008170
0.052769
0.129802
0.218999
0.275761
0.364957
0.441991
0.543351
0.482535
0.681200
0.583895
0.462263
0.308196
0.223053
0.202781
0.328468
0.482535
0.563623
0.596058
0.498752
0.474426
0.571732
0.612276
0.608221
0.592004
0.587949
0.531188
0.397393
0.227108
0.113585
-0.008047
-0.117516
-0.267529
-0.376997
-0.458085
-0.425650
-0.372943
-0.376997
-0.364834
-0.413487
-0.332399
-0.308073
-0.259420
-0.149951
-0.056700
-0.016156
0.105476
0.178455
0.186564
0.194673
0.247380
0.401447
0.575786
0.660928
0.693364
0.693364
0.660928
0.709581
0.725799
0.632548
0.656874
0.725799
0.827159
0.782560
0.762288
0.673092
0.486589
0.279815
0.056823
-0.072918
-0.226985
-0.222930
-0.295909
-0.441868
-0.462140
-0.640533
-0.908123
-1.106789
-1.333835
-1.556827
-1.398706
-1.240584
-1.354107
-1.459521
-1.459521
-1.212203
-0.920287
-0.912178
-0.782437
-0.924341
-0.766220
-0.279692
-0.076972
-0.117516
-0.251311
-0.190495
-0.129679
-0.016156
-0.020210
-0.008047
0.036551
-0.056700
-0.064809
-0.076972
-0.048591
0.000062
0.000062
0.052769
0.109530
0.150074
0.194673
0.154129
0.109530
0.101422
0.077095
0.028442
-0.040482
-0.076972
-0.085081
-0.068863
-0.028319
0.024388
0.085204
0.214945
0.287924
0.348740
0.332522
0.283869
0.279815
0.287924
0.259543
0.227108
0.296033
0.328468
0.373066
0.251434
0.340631
0.373066
0.360903
0.190618
0.000062
-0.178332
-0.206713
-0.154006
-0.089135
-0.003993
0.117639
0.141965
0.133857
0.206836
0.332522
0.446045
0.563623
0.673092
0.713636
0.778506
0.847431
0.827159
0.823104
0.827159
0.608221
0.235217
-0.170223
-0.539173
-0.709458
-0.741893
-0.701349
-0.563500
-0.352671
-0.299964
-0.405378
-0.393215
-0.389161
-0.295909
-0.186441
-0.145897
-0.060754
-0.028319
0.000062
0.036551
0.056823
0.036551
-0.008047
0.000062
0.044660
0.060878
0.000062
-0.198604
-0.393215
-0.482412
-0.405378
-0.368889
-0.182386
-0.202658
-0.076972
-0.040482
0.004116
0.028442
0.060878
0.093313
0.125748
0.182509
0.210890
0.178455
0.125748
0.056823
-0.028319
-0.125625
-0.133734
-0.117516
-0.097244
-0.036428
0.000062
0.044660
0.137911
0.170346
0.190618
0.231162
0.214945
0.210890
0.178455
0.198727
0.239271
0.251434
0.263597
0.259543
0.247380
0.186564
0.162237
0.101422
0.020334
-0.109407
-0.243202
-0.308073
-0.393215
-0.340508
-0.178332
-0.012102
0.064932
0.093313
0.113585
0.089258
0.052769
0.044660
0.012225
-0.003993
-0.068863
-0.093190
-0.093190
-0.052646
-0.024265
-0.016156
0.068986
0.121693
0.150074
0.133857
0.121693
0.044660
0.032497
0.044660
0.024388
-0.040482
-0.089135
-0.194550
-0.247257
-0.291855
-0.295909
-0.320236
-0.332399
-0.316181
-0.291855
-0.299964
-0.360780
-0.437813
-0.312127
-0.109407
0.008170
0.166292
0.247380
0.296033
0.397393
0.510916
0.555514
0.543351
0.421719
0.385229
0.182509
0.081150
0.081150
-0.052646
-0.113462
-0.060754
-0.174278
-0.364834
-0.425650
-0.413487
-0.332399
-0.239148
-0.206713
-0.202658
-0.259420
-0.247257
-0.312127
-0.328345
-0.312127
-0.287801
-0.295909
-0.312127
-0.324290
-0.336453
-0.364834
-0.267529
-0.089135
0.154129
0.340631
0.275761
0.198727
0.121693
0.036551
-0.028319
-0.093190
-0.149951
-0.105353
-0.137788
-0.214821
-0.170223
-0.093190
0.008170
0.174401
0.247380
0.287924
0.279815
0.239271
0.202781
0.150074
0.137911
0.150074
0.137911
0.137911
0.150074
0.178455
0.178455
0.198727
0.186564
0.158183
0.182509
0.243325
0.202781
0.218999
0.210890
0.214945
0.154129
0.089258
0.060878
-0.020210
-0.101298
-0.271583
-0.486466
-0.498629
-0.498629
-0.490521
-0.437813
-0.401324
-0.368889
-0.287801
-0.186441
-0.101298
-0.016156
0.012225
0.044660
0.105476
0.101422
0.093313
0.060878
0.024388
0.004116
-0.052646
-0.068863
-0.093190
-0.085081
-0.113462
-0.093190
-0.129679
-0.093190
-0.012102
0.000062
0.032497
0.089258
0.097367
0.141965
0.109530
0.032497
0.000062
0.016279
0.024388
0.060878
0.089258
0.121693
0.170346
0.214945
0.336577
0.397393
0.405501
0.462263
0.579840
0.535242
0.579840
0.612276
0.547405
0.450100
0.397393
0.405501
0.360903
0.283869
0.239271
0.308196
0.316305
0.186564
0.137911
0.178455
0.267652
0.356849
0.429828
0.421719
0.239271
0.121693
0.036551
0.004116
-0.048591
-0.076972
-0.076972
-0.072918
-0.158060
-0.275637
-0.409433
-0.425650
-0.048591
-0.235093
-0.924341
-0.843253
-0.563500
-0.425650
-0.308073
-0.182386
-0.109407
-0.040482
-0.064809
-0.072918
-0.044537
-0.036428
-0.068863
-0.072918
-0.093190
-0.093190
-0.129679
-0.170223
-0.190495
-0.198604
-0.162114
-0.174278
-0.202658
-0.149951
-0.089135
-0.060754
-0.040482
0.081150
0.182509
0.154129
0.141965
0.073041
-0.012102
-0.105353
-0.162114
-0.162114
-0.166169
-0.210767
-0.218876
-0.251311
-0.304018
-0.158060
-0.003993
0.133857
0.243325
0.373066
0.462263
0.470372
0.458208
0.458208
0.409556
0.360903
0.275761
0.170346
0.158183
0.089258
0.036551
-0.012102
-0.076972
-0.097244
-0.141842
-0.166169
-0.198604
-0.206713
-0.170223
-0.145897
-0.154006
-0.145897
-0.133734
-0.145897
-0.105353
-0.032374
0.000062
-0.040482
-0.194550
-0.178332
-0.113462
-0.081026
-0.089135
-0.081026
-0.076972
-0.113462
-0.097244
-0.113462
-0.076972
-0.040482
-0.020210
-0.012102
-0.028319
-0.081026
-0.052646
0.089258
0.170346
0.291978
0.283869
0.154129
0.044660
0.004116
-0.085081
-0.255365
-0.182386
-0.129679
-0.060754
0.182509
0.600112
0.490644
0.109530
-0.040482
-0.036428
0.089258
-0.052646
0.004116
-0.020210
0.182509
0.146020
0.044660
-0.093190
-0.154006
-0.174278
-0.251311
-0.040482
0.012225
-0.072918
-0.008047
-0.093190
0.085204
0.397393
0.454154
0.373066
0.340631
0.308196
0.218999
0.190618
0.137911
0.064932
0.008170
-0.040482
-0.020210
0.048714
0.162237
0.194673
0.186564
0.158183
0.073041
-0.052646
-0.149951
-0.222930
-0.218876
-0.182386
-0.162114
-0.109407
-0.072918
-0.024265
0.000062
0.012225
0.093313
0.137911
0.162237
0.081150
0.000062
0.012225
0.008170
0.016279
0.056823
0.081150
0.089258
0.097367
0.081150
0.056823
0.020334
-0.032374
-0.097244
-0.178332
-0.279692
-0.409433
-0.449977
-0.385106
-0.255365
-0.101298
-0.072918
-0.093190
-0.117516
-0.210767
-0.352671
-0.332399
-0.283746
-0.235093
-0.166169
-0.113462
-0.040482
-0.003993
0.040606
0.060878
0.040606
0.044660
0.028442
0.000062
-0.003993
-0.040482
-0.024265
0.016279
0.052769
0.081150
0.077095
0.141965
0.150074
0.125748
0.109530
0.113585
0.154129
0.097367
-0.154006
-0.640533
-0.681077
-0.648642
-0.539173
-0.494575
-0.381052
-0.275637
-0.178332
-0.145897
-0.218876
-0.222930
-0.287801
-0.271583
-0.235093
-0.231039
-0.158060
-0.060754
0.016279
0.137911
0.247380
0.271706
0.194673
0.137911
0.101422
0.085204
0.085204
0.105476
0.129802
0.178455
0.198727
0.186564
0.279815
0.332522
0.417665
0.446045
0.429828
0.409556
0.462263
0.462263
0.308196
0.413610
0.867703
0.656874
0.660928
0.628493
0.648765
1.256925
1.167728
1.062314
1.090694
1.110966
1.042042
0.843376
0.624439
0.462263
0.498752
0.446045
0.474426
0.417665
0.300087
0.275761
0.243325
0.214945
0.251434
0.170346
0.077095
-0.222930
-0.449977
-0.372943
-0.502684
-0.587826
-0.770274
-0.705404
-0.587826
-0.506738
-0.539173
-0.750002
-0.628370
-0.806764
-0.993266
-0.960831
-0.664860
-0.527010
-0.490521
-0.417541
-0.271583
-0.263474
-0.316181
-0.421596
-0.413487
-0.595935
-0.697295
-0.810818
-0.758111
-0.689186
-0.729730
-0.636479
-0.599989
-0.535119
-0.522956
-0.494575
-0.454031
-0.405378
-0.312127
-0.251311
-0.299964
-0.214821
-0.299964
-0.518901
-0.818927
-1.179768
-1.621697
-1.406814
-1.094626
-0.506738
-0.340508
-0.097244
0.133857
0.332522
0.381175
0.381175
0.369012
0.409556
0.405501
0.405501
0.409556
0.397393
0.397393
0.348740
0.308196
0.356849
0.336577
0.377121
0.048714
0.000062
0.032497
-0.003993
-0.226985
-0.332399
-0.283746
-0.105353
0.223053
0.344685
0.510916
0.737962
0.928519
0.948791
0.575786
0.101422
-0.222930
-0.275637
-0.101298
0.109530
0.231162
0.141965
-0.016156
-0.287801
-0.328345
-0.097244
0.178455
0.279815
0.328468
0.446045
0.494698
0.620384
0.754179
0.916355
0.944736
1.005552
0.965008
0.960954
0.214945
-0.531064
-0.571608
-0.372943
-0.012102
0.214945
0.450100
0.519024
0.616330
0.612276
0.551460
0.563623
0.441991
0.287924
0.190618
0.036551
-0.117516
-0.129679
-0.129679
-0.145897
-0.158060
-0.247257
-0.425650
-0.620261
-0.677023
-0.725676
-0.656751
-0.563500
-0.535119
-0.522956
-0.482412
-0.295909
-0.040482
0.259543
0.429828
0.579840
0.417665
0.600112
0.802832
0.839322
0.608221
0.206836
-0.571608
-0.304018
-0.044537
0.077095
0.097367
0.150074
0.133857
0.154129
0.170346
0.162237
0.218999
0.235217
0.267652
0.251434
0.162237
0.174401
0.170346
0.150074
0.129802
0.085204
0.089258
0.081150
0.073041
0.081150
0.068986
0.056823
0.036551
-0.008047
-0.012102
-0.056700
-0.068863
-0.170223
-0.397269
-0.470249
-0.563500
-0.608098
-0.640533
-0.648642
-0.591880
-0.563500
-0.510792
-0.510792
-0.441868
-0.239148
-0.129679
-0.060754
-0.012102
-0.032374
-0.060754
-0.137788
-0.304018
-0.660805
-0.697295
-0.040482
-0.316181
-0.178332
-0.064809
0.000062
0.129802
0.255489
0.231162
0.141965
0.109530
0.044660
0.040606
-0.072918
-0.113462
-0.020210
-0.040482
-0.048591
-0.085081
-0.218876
-0.186441
-0.012102
0.154129
0.235217
0.259543
0.304141
0.206836
0.194673
0.198727
0.170346
0.129802
0.036551
-0.113462
-0.275637
-0.320236
0.312250
0.446045
0.275761
0.251434
0.587949
0.705527
0.559568
0.332522
0.263597
0.194673
0.109530
-0.085081
-0.283746
-0.389161
-0.340508
-0.385106
-0.636479
-0.636479
-0.312127
-0.178332
-0.312127
-0.344562
-0.259420
0.000062
0.198727
0.198727
0.170346
0.113585
0.089258
0.117639
0.109530
0.109530
0.105476
0.068986
0.060878
0.068986
0.028442
0.020334
0.012225
0.028442
0.048714
0.012225
-0.008047
-0.048591
-0.121570
-0.218876
-0.287801
-0.320236
-0.255365
-0.182386
-0.158060
-0.170223
-0.190495
-0.158060
-0.121570
-0.089135
-0.032374
0.162237
0.385229
0.360903
0.251434
0.174401
0.162237
0.125748
0.077095
0.162237
0.255489
0.369012
0.401447
0.259543
-0.056700
-0.312127
-0.364834
-0.251311
-0.158060
-0.052646
0.032497
0.109530
0.137911
0.093313
0.101422
0.081150
0.056823
0.000062
-0.101298
-0.170223
-0.202658
-0.194550
-0.190495
-0.178332
-0.137788
-0.109407
-0.089135
-0.048591
-0.036428
-0.032374
-0.076972
-0.166169
-0.202658
-0.243202
-0.340508
-0.458085
-0.677023
-0.616207
-0.251311
-0.336453
-0.482412
-0.458085
-0.364834
-0.255365
-0.105353
0.000062
0.028442
0.182509
0.243325
0.312250
0.340631
0.251434
0.121693
0.036551
0.020334
0.081150
0.060878
0.064932
0.044660
0.060878
0.125748
0.186564
0.300087
0.389284
0.510916
0.628493
0.725799
0.729853
0.648765
0.596058
0.705527
0.806887
0.839322
0.798778
0.754179
0.701472
0.652820
0.644711
0.608221
0.527133
0.486589
0.429828
0.425773
0.454154
0.454154
0.462263
0.413610
0.304141
0.178455
0.117639
0.032497
-0.085081
-0.239148
-0.332399
-0.409433
-0.385106
-0.340508
-0.344562
-0.267529
-0.186441
-0.162114
-0.129679
-0.068863
-0.056700
-0.040482
-0.060754
-0.040482
-0.056700
-0.068863
-0.109407
-0.137788
-0.149951
-0.178332
-0.194550
-0.271583
-0.417541
-0.652696
-0.762165
-0.648642
-0.555391
-0.466194
-0.385106
-0.364834
-0.312127
-0.275637
-0.259420
-0.251311
-0.263474
-0.271583
-0.308073
-0.344562
-0.389161
-0.332399
-0.275637
-0.239148
-0.247257
-0.267529
-0.275637
-0.291855
-0.259420
-0.291855
-0.283746
-0.332399
-0.344562
-0.417541
-0.251311
0.105476
0.190618
0.251434
0.287924
0.312250
0.263597
0.251434
0.089258
-0.056700
0.060878
0.036551
-0.040482
-0.036428
-0.064809
-0.072918
-0.056700
0.000062
-0.040482
-0.056700
-0.044537
0.068986
0.227108
0.271706
0.385229
0.555514
0.681200
0.604167
0.490644
0.409556
0.263597
-0.089135
-0.320236
-0.198604
-0.283746
-0.068863
-0.012102
0.040606
-0.218876
-0.016156
0.056823
-0.020210
-0.044537
0.158183
0.385229
0.433882
0.466317
0.470372
0.490644
0.450100
0.421719
0.405501
0.401447
0.360903
0.324413
0.279815
0.251434
0.202781
0.150074
0.121693
0.064932
0.040606
0.012225
0.004116
-0.024265
-0.036428
-0.081026
-0.154006
-0.239148
-0.295909
-0.308073
-0.336453
-0.320236
-0.324290
-0.304018
-0.312127
-0.312127
-0.324290
-0.263474
-0.186441
-0.117516
0.000062
0.206836
0.450100
0.255489
0.117639
0.060878
0.028442
-0.036428
-0.154006
-0.158060
-0.145897
-0.105353
-0.133734
-0.113462
-0.109407
-0.129679
-0.105353
-0.113462
-0.113462
-0.081026
-0.101298
-0.072918
-0.085081
-0.085081
-0.085081
-0.089135
-0.093190
-0.093190
-0.068863
-0.020210
-0.020210
0.000062
0.000062
0.036551
0.052769
0.121693
0.231162
0.312250
0.300087
0.247380
0.174401
0.125748
0.105476
0.060878
0.024388
0.000062
0.000062
0.004116
0.008170
0.036551
0.044660
0.032497
0.036551
0.040606
0.028442
0.016279
0.024388
0.000062
0.020334
0.016279
0.040606
0.077095
0.089258
0.109530
0.137911
0.097367
0.089258
0.093313
0.105476
0.117639
0.093313
0.064932
0.048714
0.052769
0.036551
0.024388
0.000062
0.016279
0.085204
-0.012102
-0.016156
-0.003993
0.000062
-0.003993
0.000062
0.000062
-0.008047
-0.012102
0.004116
0.012225
-0.020210
-0.081026
-0.235093
-0.368889
-0.328345
-0.255365
-0.182386
-0.129679
-0.101298
-0.097244
-0.085081
-0.101298
-0.101298
-0.093190
-0.121570
-0.125625
-0.129679
-0.133734
-0.133734
-0.121570
-0.097244
-0.089135
-0.076972
-0.076972
-0.076972
-0.044537
-0.036428
-0.044537
-0.068863
-0.085081
-0.097244
-0.093190
-0.097244
-0.085081
-0.093190
-0.085081
-0.060754
-0.064809
-0.036428
-0.024265
-0.024265
-0.028319
-0.012102
0.000062
0.000062
-0.016156
-0.012102
-0.016156
-0.003993
-0.012102
-0.012102
-0.008047
0.000062
-0.003993
-0.024265
-0.048591
-0.044537
-0.036428
-0.052646
-0.048591
-0.072918
-0.089135
-0.068863
-0.072918
-0.060754
-0.056700
-0.048591
-0.048591
-0.056700
-0.024265
-0.016156
0.000062
0.000062
0.040606
0.093313
0.137911
0.154129
0.146020
0.121693
0.150074
0.073041
-0.008047
-0.162114
-0.295909
-0.222930
-0.145897
-0.048591
0.000062
0.081150
0.048714
-0.016156
-0.048591
-0.113462
-0.133734
-0.145897
-0.133734
-0.125625
-0.085081
-0.064809
-0.121570
-0.263474
-0.389161
-0.441868
-0.251311
0.016279
0.235217
0.344685
0.437936
0.413610
0.283869
0.154129
0.109530
-0.003993
-0.048591
0.158183
0.462263
0.494698
0.291978
-0.003993
-0.316181
-0.348617
-0.198604
-0.003993
0.308196
0.227108
0.000062
-0.113462
-0.178332
-0.162114
-0.097244
0.032497
0.137911
0.150074
0.060878
-0.016156
-0.097244
-0.121570
-0.060754
-0.003993
0.020334
0.089258
0.162237
0.190618
0.210890
0.239271
0.214945
0.097367
0.081150
0.036551
-0.024265
-0.056700
-0.158060
-0.267529
-0.291855
-0.255365
-0.356725
-0.478357
-0.587826
-0.668914
-0.660805
-0.624316
-0.567554
-0.522956
-0.462140
-0.441868
-0.409433
-0.316181
-0.259420
-0.141842
-0.121570
-0.162114
-0.113462
-0.081026
-0.072918
-0.218876
-0.295909
-0.190495
-0.141842
-0.089135
-0.032374
0.048714
0.008170
-0.012102
0.000062
0.036551
0.198727
0.433882
0.600112
0.774451
0.697418
0.478480
0.356849
0.287924
0.320359
0.429828
0.332522
0.235217
0.141965
0.068986
0.064932
0.154129
0.235217
0.360903
0.393338
0.308196
0.397393
0.462263
0.543351
0.681200
0.814995
0.875811
0.823104
0.750125
0.786615
0.806887
0.737962
0.697418
0.669037
0.636602
0.697418
0.733907
0.786615
0.810941
0.823104
0.794723
0.758234
0.579840
0.425773
0.320359
0.190618
0.028442
-0.109407
-0.235093
-0.372943
-0.417541
-0.750002
-0.758111
-0.547282
-1.123006
-1.094626
-0.839199
-0.595935
-0.620261
-0.624316
-0.628370
-0.668914
-0.798655
-0.956776
-0.871634
-0.668914
-0.470249
-0.275637
-0.210767
-0.194550
-0.206713
-0.214821
-0.174278
-0.149951
-0.125625
-0.097244
-0.105353
-0.072918
-0.060754
-0.064809
-0.064809
-0.097244
-0.093190
-0.121570
-0.129679
-0.121570
-0.129679
-0.105353
-0.040482
-0.020210
-0.008047
-0.012102
0.016279
0.064932
0.109530
0.214945
0.287924
0.352794
0.474426
0.604167
0.750125
0.867703
0.879866
0.425773
0.409556
0.478480
0.446045
0.669037
0.669037
0.446045
0.369012
0.218999
-0.125625
-0.174278
-0.194550
-0.255365
-0.409433
-0.628370
-0.741893
-0.762165
-0.847307
-0.863525
-0.835144
-0.656751
-0.113462
0.279815
0.429828
0.389284
0.255489
0.004116
0.109530
0.283869
0.348740
0.210890
-0.105353
-0.105353
0.008170
-0.036428
-0.093190
-0.089135
-0.113462
-0.040482
0.028442
0.004116
-0.028319
-0.085081
-0.068863
-0.076972
-0.137788
-0.024265
0.579840
0.466317
0.251434
0.036551
0.028442
-0.012102
-0.072918
-0.093190
-0.222930
-0.166169
-0.121570
-0.081026
0.000062
0.052769
0.154129
0.210890
0.231162
0.190618
0.141965
0.121693
0.068986
-0.028319
-0.056700
-0.016156
-0.003993
0.036551
0.105476
0.052769
0.000062
0.052769
0.125748
0.032497
0.024388
0.004116
-0.003993
-0.016156
0.012225
0.024388
0.008170
-0.008047
0.004116
-0.056700
-0.085081
-0.089135
-0.093190
-0.121570
-0.251311
-0.449977
-0.441868
-0.348617
-0.202658
-0.097244
0.016279
0.077095
0.040606
0.000062
-0.081026
-0.089135
-0.093190
-0.109407
-0.109407
-0.089135
-0.068863
-0.166169
-0.194550
-0.162114
-0.113462
-0.064809
0.004116
-0.016156
-0.052646
-0.113462
-0.154006
-0.093190
-0.036428
0.000062
0.012225
0.040606
0.048714
0.060878
0.000062
0.004116
0.024388
0.024388
0.032497
0.028442
0.056823
0.036551
0.008170
-0.008047
-0.052646
-0.089135
-0.105353
-0.076972
-0.076972
-0.081026
-0.060754
-0.072918
-0.040482
-0.028319
-0.016156
0.004116
0.000062
0.000062
-0.028319
-0.044537
-0.024265
-0.032374
-0.089135
-0.093190
-0.113462
-0.149951
-0.190495
-0.198604
-0.145897
-0.081026
-0.052646
-0.020210
0.004116
0.060878
0.109530
0.129802
0.121693
0.093313
0.097367
0.081150
0.048714
0.073041
0.068986
0.048714
0.016279
0.020334
0.056823
0.073041
0.073041
0.073041
0.073041
0.178455
0.255489
0.308196
0.320359
0.247380
0.190618
0.198727
0.227108
0.259543
0.243325
0.344685
0.381175
0.356849
0.235217
0.048714
0.068986
0.239271
0.397393
0.502807
0.636602
0.531188
0.425773
0.279815
0.097367
-0.003993
-0.060754
-0.178332
-0.283746
-0.376997
-0.454031
-0.417541
-0.421596
-0.502684
-0.652696
-0.717567
-0.839199
-0.932450
-0.936504
-0.932450
-0.900015
-0.859471
-0.709458
-0.701349
-0.579717
-0.498629
-0.409433
-0.352671
-0.283746
-0.231039
-0.324290
-0.275637
-0.202658
-0.162114
-0.101298
-0.060754
-0.016156
0.020334
0.117639
0.255489
0.373066
0.437936
0.490644
0.514970
0.425773
0.304141
0.190618
0.218999
0.263597
0.263597
0.271706
0.312250
0.291978
0.312250
0.401447
0.352794
0.279815
0.146020
0.073041
0.020334
-0.008047
-0.093190
-0.170223
-0.186441
-0.198604
-0.190495
-0.040482
0.000062
-0.089135
-0.141842
-0.101298
-0.016156
-0.016156
-0.028319
-0.012102
-0.036428
-0.072918
-0.060754
-0.032374
-0.012102
0.036551
0.008170
0.000062
-0.024265
-0.008047
-0.016156
0.012225
-0.137788
-0.214821
-0.125625
0.133857
0.474426
0.652820
0.640656
0.474426
0.510916
0.478480
0.437936
0.369012
0.296033
0.101422
-0.129679
-0.141842
-0.072918
-0.048591
-0.003993
0.016279
0.036551
0.044660
0.048714
0.052769
0.154129
0.158183
0.146020
0.117639
0.056823
0.036551
0.024388
0.032497
0.016279
0.012225
0.028442
0.012225
0.000062
0.028442
0.036551
0.020334
0.020334
-0.028319
-0.072918
-0.024265
0.000062
0.141965
0.109530
0.008170
-0.060754
-0.072918
-0.052646
-0.097244
-0.060754
-0.068863
-0.056700
-0.064809
-0.008047
-0.008047
-0.008047
-0.016156
-0.024265
-0.028319
-0.032374
-0.052646
-0.064809
-0.040482
-0.028319
0.004116
0.101422
0.028442
-0.052646
-0.052646
-0.028319
-0.036428
-0.032374
-0.028319
-0.036428
-0.003993
0.060878
0.129802
0.239271
0.162237
0.101422
0.036551
0.000062
0.032497
0.077095
0.081150
0.064932
0.056823
0.040606
0.020334
0.020334
0.020334
0.044660
0.052769
0.093313
0.105476
0.085204
0.012225
-0.024265
-0.003993
0.036551
0.020334
0.000062
0.000062
0.020334
0.048714
0.028442
0.052769
0.109530
0.097367
-0.032374
-0.243202
-0.332399
-0.190495
-0.056700
0.016279
0.064932
0.068986
0.032497
0.012225
-0.109407
-0.405378
-0.591880
-0.567554
-0.368889
-0.226985
-0.162114
-0.166169
-0.182386
-0.113462
-0.129679
-0.271583
-0.364834
-0.352671
-0.364834
-0.308073
-0.170223
-0.052646
0.085204
0.133857
0.036551
0.024388
0.040606
0.032497
0.028442
-0.008047
-0.040482
-0.056700
-0.081026
-0.048591
-0.012102
-0.016156
-0.003993
0.004116
-0.044537
-0.105353
-0.097244
-0.105353
-0.109407
-0.085081
-0.101298
-0.105353
-0.089135
-0.174278
-0.206713
-0.133734
-0.048591
0.000062
0.056823
0.016279
-0.032374
-0.008047
0.028442
0.089258
0.113585
0.154129
0.190618
0.243325
0.243325
0.267652
0.267652
0.223053
0.210890
0.214945
0.186564
0.178455
0.178455
0.133857
0.117639
0.125748
0.150074
0.154129
0.121693
-0.036428
-0.214821
-0.251311
-0.170223
-0.072918
0.000062
0.077095
0.105476
0.141965
0.158183
0.158183
0.097367
0.097367
0.109530
0.101422
0.085204
0.073041
0.064932
0.056823
0.064932
0.077095
0.085204
0.077095
0.060878
0.073041
0.052769
0.040606
0.008170
0.000062
-0.012102
-0.040482
-0.036428
-0.032374
-0.024265
0.000062
0.008170
0.000062
-0.016156
-0.048591
-0.081026
-0.133734
-0.117516
-0.101298
-0.060754
-0.048591
-0.016156
-0.048591
-0.097244
-0.101298
-0.101298
-0.097244
-0.089135
-0.093190
-0.081026
-0.064809
-0.052646
-0.056700
-0.052646
-0.052646
-0.044537
-0.060754
-0.048591
-0.020210
0.032497
0.048714
-0.012102
-0.149951
-0.385106
-0.490521
-0.324290
-0.182386
-0.072918
0.008170
0.048714
0.040606
0.040606
0.012225
0.000062
-0.003993
-0.016156
0.000062
0.048714
0.020334
0.004116
-0.003993
0.016279
0.056823
0.040606
0.060878
0.064932
0.056823
0.016279
0.012225
0.024388
0.024388
0.064932
0.089258
0.121693
0.105476
0.089258
0.085204
0.093313
0.101422
0.036551
0.141965
0.283869
0.397393
0.356849
0.381175
0.360903
0.320359
0.227108
0.137911
0.109530
0.174401
0.182509
0.223053
0.255489
0.186564
0.105476
-0.117516
-0.328345
-0.445922
-0.470249
-0.393215
-0.158060
-0.020210
0.113585
0.162237
0.137911
0.048714
-0.101298
-0.198604
-0.149951
-0.044537
-0.003993
0.036551
0.020334
-0.360780
-0.579717
-0.482412
-0.324290
-0.218876
-0.267529
-0.263474
-0.259420
-0.259420
-0.263474
-0.202658
-0.060754
0.048714
0.166292
0.239271
0.218999
0.231162
0.356849
0.296033
0.287924
0.101422
0.064932
-0.012102
0.008170
0.056823
0.117639
0.170346
0.312250
0.640656
1.037987
0.725799
0.523079
0.381175
0.344685
0.259543
0.190618
0.146020
0.052769
0.000062
-0.056700
-0.109407
-0.105353
-0.117516
-0.101298
-0.093190
-0.076972
-0.048591
-0.040482
-0.032374
0.008170
-0.020210
-0.012102
-0.032374
-0.024265
0.000062
-0.003993
0.000062
-0.024265
0.008170
-0.016156
-0.064809
-0.052646
-0.097244
-0.109407
-0.081026
-0.060754
0.068986
0.133857
-0.003993
-0.166169
-0.393215
-0.551336
-0.482412
-0.381052
-0.299964
-0.259420
-0.239148
-0.222930
-0.247257
-0.226985
-0.222930
-0.206713
-0.190495
-0.190495
-0.206713
-0.239148
-0.210767
-0.206713
-0.214821
-0.206713
-0.194550
-0.206713
-0.190495
-0.178332
-0.166169
-0.166169
-0.154006
-0.154006
-0.162114
-0.178332
-0.190495
-0.174278
-0.247257
-0.271583
-0.271583
-0.267529
-0.308073
-0.295909
-0.316181
-0.328345
-0.344562
-0.352671
-0.332399
-0.328345
-0.316181
-0.275637
-0.243202
-0.202658
-0.129679
0.020334
0.227108
0.425773
0.583895
0.725799
0.883920
0.989335
1.009607
0.956899
0.883920
0.790669
0.810941
0.875811
1.001498
0.604167
0.360903
0.344685
0.340631
0.279815
0.664983
0.620384
0.466317
0.356849
0.308196
0.308196
0.231162
0.154129
0.101422
0.068986
0.008170
0.048714
0.064932
0.077095
0.093313
0.081150
0.073041
0.056823
0.056823
0.020334
-0.016156
-0.141842
-0.214821
-0.328345
-0.356725
-0.283746
-0.259420
-0.344562
-0.385106
-0.243202
-0.182386
-0.158060
-0.093190
-0.076972
-0.162114
-0.259420
-0.287801
-0.279692
-0.231039
-0.210767
-0.198604
-0.141842
-0.040482
0.000062
0.036551
0.004116
0.024388
0.052769
0.036551
0.064932
0.121693
0.158183
0.178455
0.133857
0.044660
0.004116
-0.040482
-0.121570
-0.145897
-0.162114
-0.178332
-0.154006
-0.097244
-0.036428
-0.052646
-0.012102
0.020334
0.048714
0.077095
0.093313
0.133857
0.150074
0.190618
0.210890
0.227108
0.283869
0.312250
0.340631
0.393338
0.409556
0.421719
0.421719
0.385229
0.348740
0.287924
0.239271
0.214945
0.214945
0.235217
0.227108
0.243325
0.247380
0.198727
0.162237
0.129802
0.117639
0.121693
0.117639
0.093313
0.125748
0.101422
0.028442
-0.129679
-0.299964
-0.259420
-0.166169
-0.064809
-0.008047
0.016279
0.008170
0.004116
0.004116
-0.016156
-0.008047
-0.064809
-0.137788
-0.263474
-0.381052
-0.344562
-0.283746
-0.316181
-0.381052
-0.433759
-0.401324
-0.291855
-0.121570
0.032497
0.060878
0.060878
0.004116
-0.036428
-0.141842
-0.218876
-0.287801
-0.283746
-0.283746
-0.356725
-0.328345
-0.304018
-0.255365
-0.247257
-0.186441
-0.162114
-0.158060
-0.113462
-0.145897
-0.166169
-0.182386
-0.231039
-0.255365
-0.328345
-0.340508
-0.340508
-0.344562
-0.409433
-0.454031
-0.466194
-0.482412
-0.612152
-0.668914
-0.599989
-0.502684
-0.535119
-0.535119
-0.498629
-0.445922
-0.368889
-0.243202
-0.016156
0.000062
-0.081026
-0.040482
0.008170
0.048714
0.052769
0.101422
0.141965
0.146020
0.263597
0.279815
0.085204
-0.032374
-0.145897
-0.060754
0.016279
0.125748
0.218999
0.263597
0.182509
0.247380
0.243325
0.182509
0.202781
0.198727
0.218999
0.206836
0.190618
0.194673
0.202781
0.186564
0.190618
0.113585
0.040606
0.032497
0.016279
-0.008047
-0.016156
0.028442
0.089258
0.085204
0.077095
0.032497
0.032497
0.077095
0.089258
0.085204
0.105476
0.121693
0.170346
0.206836
0.190618
0.202781
0.271706
0.239271
0.186564
0.146020
0.154129
0.166292
0.190618
0.235217
0.271706
0.425773
0.555514
0.673092
0.746071
0.810941
0.810941
0.766343
0.701472
0.640656
0.543351
0.417665
0.287924
0.141965
-0.032374
-0.202658
-0.263474
-0.344562
-0.405378
-0.433759
-0.474303
-0.413487
-0.336453
-0.283746
-0.202658
-0.133734
-0.121570
-0.068863
-0.064809
-0.085081
-0.072918
-0.158060
-0.360780
-0.381052
-0.425650
-0.393215
-0.308073
-0.291855
-0.255365
-0.202658
-0.178332
-0.214821
-0.336453
-0.445922
-0.356725
-0.251311
-0.178332
-0.097244
-0.016156
-0.036428
-0.016156
0.048714
0.166292
0.174401
0.210890
0.202781
0.190618
0.214945
0.231162
0.275761
0.283869
0.287924
0.251434
0.210890
0.235217
0.206836
0.202781
0.162237
0.117639
0.016279
-0.064809
-0.158060
-0.381052
-0.389161
-0.226985
-0.012102
0.105476
0.133857
0.109530
0.089258
0.073041
0.064932
0.048714
0.052769
-0.008047
-0.003993
-0.085081
-0.137788
-0.149951
-0.113462
-0.105353
-0.068863
-0.056700
-0.036428
0.000062
0.028442
0.020334
-0.028319
-0.044537
-0.056700
-0.093190
-0.101298
-0.117516
-0.141842
-0.154006
-0.137788
-0.113462
-0.081026
-0.085081
-0.097244
-0.093190
-0.072918
-0.052646
-0.048591
-0.040482
-0.036428
-0.028319
-0.016156
0.000062
0.024388
0.000062
-0.020210
-0.081026
-0.060754
-0.036428
-0.081026
-0.222930
-0.458085
-0.681077
-0.770274
-0.762165
-0.636479
-0.510792
-0.385106
-0.251311
-0.154006
-0.089135
-0.008047
0.081150
0.004116
-0.008047
0.000062
0.032497
0.036551
0.048714
0.052769
0.052769
0.085204
0.170346
0.182509
0.150074
0.150074
0.101422
0.000062
-0.076972
-0.109407
0.028442
0.154129
0.271706
0.356849
0.340631
0.243325
0.068986
-0.048591
-0.056700
-0.072918
-0.182386
-0.235093
-0.068863
-0.117516
-0.133734
0.113585
0.429828
0.482535
0.596058
1.013661
0.997443
0.916355
0.563623
0.214945
0.117639
0.174401
0.178455
0.052769
-0.149951
-0.393215
-0.397269
-0.020210
0.287924
0.766343
1.188000
1.297469
1.208272
0.908247
0.705527
0.567677
0.441991
0.259543
0.093313
0.000062
-0.109407
-0.166169
-0.458085
-0.794600
-0.985157
-1.110843
-1.118952
-0.928395
-0.571608
-0.275637
-0.076972
0.004116
0.004116
0.008170
0.024388
-0.064809
-0.113462
-0.186441
-0.231039
-0.214821
-0.239148
-0.263474
-0.235093
-0.198604
-0.125625
-0.056700
-0.008047
0.020334
0.060878
0.133857
0.056823
-0.020210
-0.056700
0.146020
0.377121
0.214945
0.117639
0.044660
0.085204
0.044660
0.048714
0.085204
0.105476
0.068986
0.032497
0.089258
0.093313
0.081150
0.073041
0.056823
0.008170
-0.076972
-0.085081
-0.056700
-0.060754
-0.024265
-0.008047
0.000062
0.024388
-0.012102
-0.024265
-0.133734
-0.263474
-0.389161
-0.429705
-0.352671
-0.239148
-0.145897
-0.235093
-0.295909
-0.494575
-0.454031
-0.360780
-0.376997
-0.340508
-0.271583
-0.231039
-0.218876
-0.105353
-0.097244
0.008170
0.441991
0.936627
0.616330
0.616330
0.170346
0.162237
0.174401
0.141965
0.133857
0.190618
0.267652
0.170346
0.073041
-0.121570
-0.243202
-0.206713
-0.235093
-0.186441
-0.154006
-0.133734
-0.076972
-0.109407
-0.154006
-0.113462
-0.166169
-0.129679
-0.048591
0.089258
0.198727
0.291978
0.364957
0.218999
0.210890
0.174401
0.178455
0.275761
0.239271
0.243325
0.316305
0.312250
0.296033
0.133857
-0.093190
-0.287801
-0.458085
-0.462140
-0.368889
-0.304018
-0.251311
-0.194550
-0.158060
-0.113462
-0.085081
-0.024265
0.000062
0.000062
-0.003993
0.024388
0.073041
0.121693
0.056823
-0.040482
-0.170223
-0.312127
-0.409433
-0.441868
-0.478357
-0.494575
-0.486466
-0.474303
-0.543228
-0.571608
-0.595935
-0.599989
-0.644588
-0.681077
-0.685132
-0.660805
-0.608098
-0.518901
-0.478357
-0.421596
-0.364834
-0.360780
-0.348617
-0.320236
-0.316181
-0.308073
-0.295909
-0.287801
-0.271583
-0.267529
-0.267529
-0.279692
-0.308073
-0.304018
-0.324290
-0.352671
-0.389161
-0.425650
-0.441868
-0.462140
-0.527010
-0.531064
-0.454031
-0.466194
-0.437813
-0.372943
-0.336453
-0.340508
-0.340508
-0.299964
-0.222930
-0.251311
-0.271583
-0.194550
-0.218876
-0.239148
-0.186441
-0.117516
0.162237
0.417665
0.600112
0.709581
0.786615
0.835267
0.900138
0.965008
1.001498
1.021770
1.042042
1.058259
0.932573
0.640656
0.381175
0.105476
-0.137788
-0.117516
0.000062
0.081150
0.170346
0.235217
0.324413
0.271706
0.239271
0.267652
0.296033
0.304141
0.287924
0.283869
0.271706
0.287924
0.296033
0.291978
0.308196
0.304141
0.316305
0.279815
0.279815
0.296033
0.413610
0.454154
0.409556
0.409556
0.433882
0.377121
0.405501
0.446045
0.470372
0.446045
0.393338
0.381175
0.364957
0.344685
0.328468
0.312250
0.291978
0.263597
0.243325
0.214945
0.190618
0.158183
0.178455
0.178455
0.166292
0.158183
0.141965
0.117639
0.081150
-0.149951
-0.324290
-0.279692
-0.097244
0.154129
0.324413
0.324413
0.296033
0.235217
0.239271
0.243325
0.275761
0.287924
0.255489
0.214945
0.178455
0.186564
0.174401
0.137911
0.137911
0.073041
0.068986
0.024388
-0.012102
-0.056700
-0.133734
-0.263474
-0.486466
-0.758111
-0.900015
-0.790546
-0.620261
-0.478357
-0.393215
-0.352671
-0.320236
-0.072918
0.231162
0.498752
0.705527
0.628493
0.798778
0.782560
0.750125
0.709581
0.620384
0.498752
0.393338
0.324413
0.247380
0.186564
0.137911
0.093313
0.064932
-0.016156
-0.048591
-0.064809
-0.076972
-0.076972
-0.040482
0.012225
0.028442
-0.044537
-0.044537
-0.089135
-0.097244
-0.109407
-0.113462
-0.101298
-0.081026
-0.068863
-0.081026
-0.076972
-0.048591
-0.012102
0.016279
0.024388
0.024388
0.000062
0.020334
0.105476
0.150074
0.154129
0.129802
0.146020
0.154129
0.154129
0.178455
0.218999
0.312250
0.474426
0.705527
0.985280
0.835267
0.936627
0.746071
0.616330
0.498752
0.417665
0.251434
0.101422
0.040606
0.016279
0.077095
0.085204
0.133857
0.170346
0.137911
0.109530
0.064932
-0.032374
-0.076972
-0.218876
-0.344562
-0.295909
-0.255365
-0.243202
-0.255365
-0.279692
-0.336453
-0.348617
-0.332399
-0.299964
-0.255365
-0.210767
-0.174278
-0.166169
-0.133734
-0.076972
0.004116
0.028442
-0.008047
-0.085081
-0.129679
-0.101298
-0.093190
-0.089135
-0.105353
-0.170223
-0.231039
-0.320236
-0.332399
-0.291855
-0.251311
-0.243202
-0.287801
-0.348617
-0.308073
-0.283746
-0.243202
-0.210767
-0.101298
0.040606
0.064932
0.044660
0.016279
-0.020210
-0.036428
-0.218876
-0.283746
-0.226985
-0.158060
-0.101298
-0.158060
-0.186441
-0.072918
-0.283746
-0.170223
0.036551
0.190618
0.150074
-0.052646
-0.182386
-0.056700
0.121693
0.206836
0.283869
0.255489
0.190618
0.178455
0.137911
0.089258
0.081150
0.048714
0.024388
0.016279
0.028442
0.048714
0.036551
0.044660
0.020334
0.040606
0.060878
0.052769
0.060878
0.032497
0.024388
0.016279
0.000062
0.000062
0.024388
0.028442
0.068986
0.060878
0.077095
0.077095
0.068986
0.081150
0.089258
0.097367
0.105476
0.125748
0.150074
0.158183
0.133857
0.121693
0.101422
0.048714
-0.003993
-0.020210
-0.060754
-0.101298
-0.044537
-0.016156
-0.040482
-0.032374
-0.020210
-0.024265
-0.012102
-0.012102
0.000062
0.004116
0.000062
0.004116
-0.003993
0.012225
0.008170
0.028442
-0.016156
-0.064809
-0.072918
-0.036428
0.000062
0.000062
0.024388
0.000062
0.000062
-0.044537
-0.044537
-0.101298
-0.141842
-0.154006
-0.174278
-0.182386
-0.154006
-0.121570
-0.109407
-0.076972
-0.194550
-0.304018
-0.328345
-0.263474
-0.243202
-0.194550
-0.089135
-0.052646
-0.028319
0.000062
-0.008047
-0.028319
-0.016156
0.024388
-0.003993
0.004116
0.000062
-0.003993
-0.008047
-0.020210
-0.036428
-0.056700
-0.048591
-0.024265
-0.036428
-0.044537
-0.003993
-0.093190
-0.040482
-0.048591
-0.028319
0.004116
-0.003993
0.016279
0.004116
0.000062
0.000062
0.000062
0.020334
-0.012102
0.044660
0.044660
0.040606
0.044660
-0.003993
-0.008047
0.008170
0.032497
-0.064809
-0.093190
-0.072918
-0.141842
-0.125625
-0.158060
-0.145897
-0.133734
-0.085081
-0.040482
-0.036428
-0.036428
-0.020210
-0.024265
-0.048591
0.000062
0.000062
0.000062
-0.036428
-0.008047
-0.016156
-0.040482
-0.044537
-0.028319
-0.064809
-0.105353
-0.251311
-0.344562
-0.324290
-0.125625
-0.137788
-0.097244
-0.028319
-0.024265
-0.028319
0.004116
0.016279
0.040606
0.068986
0.089258
0.024388
0.068986
0.056823
0.028442
0.012225
0.036551
0.020334
0.000062
0.068986
-0.016156
-0.020210
-0.016156
-0.028319
-0.081026
-0.024265
-0.048591
-0.097244
-0.060754
-0.064809
-0.097244
-0.121570
-0.089135
-0.097244
-0.093190
-0.076972
-0.060754
-0.076972
-0.064809
-0.028319
-0.028319
-0.024265
-0.028319
-0.024265
-0.032374
-0.024265
-0.024265
-0.012102
0.000062
0.008170
0.000062
-0.003993
0.020334
0.012225
0.004116
0.000062
-0.012102
-0.008047
0.004116
-0.044537
-0.052646
-0.072918
-0.076972
-0.085081
-0.064809
-0.052646
-0.056700
-0.020210
0.020334
-0.016156
-0.101298
-0.243202
-0.344562
-0.279692
-0.210767
-0.174278
-0.154006
-0.129679
-0.158060
-0.182386
-0.178332
-0.166169
-0.141842
-0.158060
-0.158060
-0.145897
-0.154006
-0.137788
-0.129679
-0.064809
-0.036428
-0.044537
-0.028319
-0.012102
0.000062
-0.008047
0.020334
0.000062
0.000062
0.008170
0.020334
0.036551
0.056823
0.032497
0.024388
0.016279
0.032497
0.024388
0.024388
0.032497
0.052769
0.077095
0.056823
0.081150
0.113585
0.121693
0.125748
0.125748
0.141965
0.133857
0.141965
0.146020
0.154129
0.150074
0.137911
0.117639
0.113585
0.105476
0.085204
0.060878
0.040606
0.040606
0.040606
0.048714
0.036551
0.008170
-0.012102
0.000062
0.000062
0.028442
0.040606
0.064932
0.060878
0.077095
0.105476
0.125748
0.162237
0.190618
0.206836
0.186564
0.182509
0.150074
0.125748
0.113585
0.073041
0.052769
0.040606
0.016279
0.008170
0.004116
0.004116
0.024388
0.036551
0.032497
0.068986
0.081150
0.077095
0.060878
0.048714
0.044660
0.040606
0.016279
0.008170
0.000062
-0.008047
-0.028319
-0.048591
-0.072918
-0.085081
-0.093190
-0.089135
-0.093190
-0.081026
-0.085081
-0.081026
-0.064809
-0.056700
-0.036428
-0.032374
-0.032374
-0.028319
-0.016156
0.000062
-0.008047
-0.016156
-0.040482
-0.068863
-0.093190
-0.093190
-0.097244
-0.081026
-0.072918
-0.085081
-0.085081
-0.085081
-0.068863
-0.056700
-0.064809
-0.060754
-0.072918
-0.064809
-0.076972
-0.093190
-0.068863
-0.097244
-0.129679
-0.226985
-0.255365
-0.117516
0.024388
0.121693
0.166292
0.182509
0.129802
0.064932
0.000062
-0.048591
-0.052646
-0.040482
0.000062
0.032497
0.081150
0.182509
0.218999
0.308196
0.401447
0.458208
0.478480
0.478480
0.454154
0.429828
0.381175
0.316305
0.271706
0.218999
0.154129
0.125748
0.089258
0.077095
0.060878
0.040606
0.000062
-0.032374
-0.056700
-0.048591
-0.056700
-0.040482
-0.044537
-0.081026
-0.121570
-0.133734
-0.129679
-0.154006
-0.174278
-0.198604
-0.202658
-0.206713
-0.231039
-0.202658
-0.178332
-0.166169
-0.137788
-0.149951
-0.170223
-0.162114
-0.137788
-0.154006
-0.121570
-0.052646
-0.036428
-0.081026
-0.076972
-0.076972
-0.076972
-0.056700
-0.060754
-0.081026
-0.076972
-0.129679
-0.243202
-0.364834
-0.474303
-0.372943
-0.210767
-0.141842
-0.178332
-0.072918
-0.056700
-0.109407
-0.113462
-0.093190
-0.052646
-0.081026
-0.040482
-0.008047
-0.048591
0.008170
-0.129679
-0.113462
-0.052646
-0.068863
-0.089135
-0.089135
-0.024265
0.000062
0.048714
-0.036428
0.004116
-0.008047
-0.036428
-0.085081
-0.028319
0.064932
0.036551
0.097367
0.170346
0.235217
0.166292
0.271706
0.255489
0.235217
0.206836
0.218999
0.198727
0.198727
0.255489
0.336577
0.344685
0.377121
0.340631
0.300087
0.271706
0.186564
0.113585
-0.064809
-0.081026
-0.064809
-0.081026
-0.137788
-0.178332
-0.166169
-0.113462
-0.032374
0.008170
0.044660
0.020334
-0.003993
0.036551
-0.008047
0.040606
0.036551
0.036551
0.056823
0.068986
0.064932
0.016279
0.020334
0.060878
0.000062
-0.008047
-0.032374
-0.064809
-0.048591
-0.056700
-0.044537
-0.020210
-0.028319
-0.040482
-0.097244
-0.016156
-0.145897
-0.218876
-0.283746
-0.255365
-0.259420
-0.263474
-0.231039
-0.162114
-0.117516
-0.255365
-0.340508
-0.332399
-0.263474
-0.174278
-0.052646
0.024388
0.024388
0.077095
0.032497
0.004116
-0.016156
-0.036428
-0.020210
-0.081026
-0.076972
-0.052646
0.016279
0.073041
0.186564
0.263597
0.218999
0.275761
0.320359
0.275761
0.385229
0.397393
0.344685
0.251434
0.186564
0.105476
0.040606
-0.016156
-0.056700
-0.032374
-0.032374
-0.020210
-0.012102
-0.012102
0.020334
-0.032374
-0.060754
-0.085081
-0.072918
-0.129679
-0.056700
-0.072918
-0.056700
-0.052646
-0.044537
-0.056700
0.000062
-0.028319
-0.121570
-0.129679
-0.076972
-0.064809
-0.064809
-0.117516
-0.068863
-0.048591
-0.105353
-0.064809
-0.121570
-0.081026
-0.032374
0.008170
-0.003993
0.036551
0.060878
0.036551
0.133857
0.105476
0.020334
-0.024265
-0.016156
0.004116
0.020334
-0.105353
-0.028319
-0.044537
0.000062
-0.020210
-0.048591
-0.137788
-0.072918
-0.097244
-0.145897
-0.117516
-0.081026
-0.093190
-0.072918
-0.076972
-0.072918
-0.076972
-0.097244
-0.105353
-0.101298
-0.101298
-0.032374
-0.097244
-0.036428
0.064932
0.073041
0.166292
0.174401
0.154129
0.081150
0.032497
0.052769
0.040606
0.028442
-0.064809
-0.186441
-0.141842
-0.032374
0.052769
0.174401
0.247380
0.389284
0.458208
0.547405
0.474426
0.441991
0.360903
0.316305
0.312250
0.279815
0.320359
0.393338
0.312250
0.247380
0.405501
0.348740
0.190618
0.275761
0.247380
0.182509
0.218999
0.239271
0.162237
0.425773
0.300087
0.421719
0.429828
0.417665
0.369012
0.324413
0.198727
0.174401
0.247380
0.259543
0.141965
0.113585
0.060878
0.182509
0.081150
0.223053
0.158183
0.133857
0.141965
0.158183
0.113585
0.097367
0.146020
0.125748
0.150074
0.166292
0.190618
0.137911
0.150074
0.162237
0.125748
-0.068863
-0.174278
-0.149951
-0.202658
-0.214821
-0.259420
-0.247257
-0.324290
-0.312127
-0.239148
-0.279692
-0.239148
-0.190495
-0.166169
-0.182386
-0.198604
-0.206713
-0.271583
-0.352671
-0.344562
-0.385106
-0.401324
-0.498629
-0.644588
-0.567554
-0.595935
-0.425650
-0.295909
-0.206713
-0.259420
-0.044537
-0.036428
-0.154006
0.024388
-0.003993
-0.003993
0.146020
-0.032374
-0.064809
-0.068863
0.008170
-0.008047
-0.012102
0.077095
-0.040482
0.016279
0.085204
0.060878
0.004116
0.077095
0.150074
0.085204
0.073041
0.085204
0.012225
-0.097244
-0.129679
-0.137788
-0.231039
-0.243202
-0.178332
-0.089135
-0.154006
-0.085081
-0.028319
-0.024265
0.008170
0.028442
0.036551
0.064932
0.077095
0.150074
-0.003993
0.089258
-0.008047
0.056823
-0.008047
0.016279
0.028442
0.016279
0.004116
0.012225
0.077095
0.044660
-0.028319
0.068986
-0.064809
0.032497
-0.105353
0.024388
-0.012102
0.004116
-0.137788
0.008170
0.024388
-0.052646
-0.064809
-0.064809
0.000062
0.012225
-0.016156
-0.008047
0.073041
0.125748
0.186564
0.012225
-0.032374
-0.170223
-0.235093
-0.263474
-0.279692
-0.202658
-0.141842
-0.218876
-0.291855
-0.332399
-0.316181
-0.251311
-0.182386
-0.202658
-0.141842
-0.141842
-0.101298
-0.040482
-0.125625
-0.097244
-0.170223
-0.182386
-0.145897
-0.149951
-0.182386
-0.182386
-0.206713
-0.235093
-0.235093
-0.239148
-0.218876
-0.174278
-0.210767
-0.174278
-0.190495
-0.174278
-0.145897
-0.129679
-0.109407
-0.117516
-0.093190
-0.060754
-0.008047
0.036551
0.117639
0.121693
0.182509
0.275761
0.381175
0.413610
0.450100
0.510916
0.539296
0.527133
0.498752
0.474426
0.425773
0.417665
0.352794
0.291978
0.271706
0.259543
0.214945
0.174401
0.105476
0.068986
0.064932
0.024388
-0.003993
-0.036428
-0.097244
-0.141842
-0.182386
-0.202658
-0.198604
-0.190495
-0.141842
-0.097244
-0.052646
-0.008047
-0.008047
-0.008047
-0.008047
-0.028319
-0.024265
-0.028319
0.000062
-0.024265
-0.028319
-0.003993
0.000062
-0.036428
-0.166169
-0.340508
-0.417541
-0.328345
-0.239148
-0.166169
-0.125625
-0.101298
-0.113462
-0.121570
-0.081026
-0.056700
-0.024265
-0.016156
-0.008047
0.000062
-0.003993
-0.008047
-0.003993
-0.016156
-0.040482
-0.044537
-0.072918
-0.101298
-0.121570
-0.154006
-0.162114
-0.170223
-0.154006
-0.133734
-0.141842
-0.129679
-0.141842
-0.141842
-0.154006
-0.149951
-0.149951
-0.170223
-0.202658
-0.226985
-0.194550
-0.162114
-0.113462
-0.040482
0.032497
0.117639
0.231162
0.324413
0.369012
0.401447
0.397393
0.389284
0.369012
0.340631
0.271706
0.202781
0.125748
0.032497
0.000062
-0.020210
0.000062
0.056823
0.158183
0.206836
0.210890
0.194673
0.162237
0.077095
0.000062
-0.032374
-0.048591
-0.068863
-0.060754
-0.060754
-0.052646
-0.048591
-0.036428
-0.024265
-0.008047
0.000062
-0.008047
-0.012102
-0.012102
0.000062
0.016279
-0.024265
-0.121570
-0.251311
-0.320236
-0.226985
-0.158060
-0.081026
-0.016156
0.012225
0.024388
0.024388
0.016279
0.016279
0.020334
0.012225
0.012225
0.020334
0.020334
0.012225
0.004116
0.024388
0.024388
0.012225
0.000062
-0.003993
-0.003993
0.000062
-0.008047
-0.016156
-0.024265
-0.024265
-0.040482
-0.048591
-0.036428
-0.016156
-0.003993
-0.003993
0.000062
0.028442
0.060878
0.081150
0.113585
0.129802
0.150074
0.174401
0.202781
0.239271
0.251434
0.300087
0.328468
0.352794
0.360903
0.340631
0.251434
0.162237
0.081150
0.040606
0.024388
0.000062
-0.024265
-0.052646
-0.089135
-0.133734
-0.178332
-0.182386
-0.141842
-0.072918
0.000062
0.024388
0.004116
-0.008047
-0.003993
0.000062
0.004116
0.000062
0.020334
0.020334
0.020334
0.024388
0.016279
0.004116
-0.003993
-0.020210
0.000062
-0.044537
-0.125625
-0.287801
-0.413487
-0.352671
-0.255365
-0.149951
-0.052646
0.008170
0.032497
0.056823
0.060878
0.073041
0.085204
0.089258
0.093313
0.089258
0.068986
0.052769
0.024388
0.000062
0.000062
-0.008047
-0.040482
-0.056700
-0.068863
-0.076972
-0.089135
-0.097244
-0.129679
-0.149951
-0.145897
-0.174278
-0.198604
-0.206713
-0.218876
-0.210767
-0.186441
-0.137788
-0.097244
-0.052646
-0.036428
-0.003993
0.000062
0.004116
0.016279
0.008170
0.004116
0.000062
0.000062
-0.003993
0.012225
0.020334
0.048714
0.081150
0.097367
0.146020
0.178455
0.198727
0.223053
0.227108
0.239271
0.235217
0.214945
0.194673
0.150074
0.109530
0.081150
0.048714
0.052769
0.060878
0.048714
0.032497
0.044660
0.040606
0.068986
0.097367
0.077095
0.064932
0.048714
0.052769
0.032497
0.024388
0.000062
0.000062
0.000062
-0.012102
-0.008047
-0.016156
0.004116
0.000062
0.000062
-0.003993
-0.008047
-0.016156
-0.020210
0.000062
0.004116
-0.020210
-0.149951
-0.279692
-0.291855
-0.190495
-0.113462
-0.040482
0.008170
0.036551
0.036551
0.024388
0.020334
0.036551
0.024388
0.024388
0.028442
0.032497
0.016279
0.008170
0.012225
0.008170
0.000062
0.000062
0.000062
0.008170
0.000062
-0.003993
0.000062
0.004116
0.008170
0.004116
-0.008047
-0.020210
-0.024265
-0.028319
-0.032374
-0.048591
-0.036428
-0.024265
-0.024265
-0.028319
-0.024265
-0.020210
-0.020210
-0.028319
-0.008047
-0.016156
-0.020210
-0.028319
-0.036428
-0.040482
-0.032374
-0.040482
-0.036428
-0.012102
0.000062
0.004116
0.008170
0.004116
-0.003993
-0.003993
-0.012102
0.000062
0.016279
0.036551
0.056823
0.073041
0.101422
0.113585
0.117639
0.117639
0.117639
0.113585
0.097367
0.093313
0.085204
0.081150
0.068986
0.073041
0.093313
0.113585
0.117639
0.113585
0.109530
0.081150
0.081150
0.064932
0.036551
0.032497
0.008170
-0.008047
-0.012102
-0.028319
-0.020210
-0.016156
0.000062
0.004116
0.000062
-0.081026
-0.214821
-0.295909
-0.194550
-0.097244
0.004116
0.077095
0.133857
0.133857
0.133857
0.121693
0.109530
0.093313
0.068986
0.044660
0.028442
0.020334
0.000062
-0.028319
-0.028319
-0.032374
-0.040482
-0.032374
-0.024265
-0.020210
-0.016156
-0.016156
0.004116
0.012225
0.012225
0.020334
0.020334
0.012225
0.016279
0.000062
0.000062
-0.012102
-0.012102
-0.008047
-0.024265
-0.032374
-0.044537
-0.044537
-0.052646
-0.052646
-0.036428
-0.056700
-0.060754
-0.052646
-0.044537
-0.032374
-0.048591
-0.048591
-0.048591
-0.040482
-0.040482
-0.048591
-0.032374
-0.028319
-0.036428
-0.032374
-0.036428
-0.028319
-0.028319
-0.020210
-0.016156
-0.008047
0.004116
0.004116
0.000062
0.004116
0.008170
0.020334
0.024388
0.028442
0.020334
0.020334
0.016279
0.020334
0.004116
0.012225
0.000062
0.016279
0.012225
0.024388
0.024388
0.028442
0.040606
0.036551
0.040606
0.056823
0.068986
0.028442
-0.024265
-0.186441
-0.304018
-0.247257
-0.162114
-0.093190
-0.024265
0.012225
0.024388
0.040606
0.036551
0.036551
0.040606
0.016279
0.040606
0.044660
0.032497
0.020334
0.024388
0.012225
0.012225
0.012225
0.020334
0.008170
0.004116
0.024388
0.028442
0.032497
0.032497
0.024388
0.020334
0.016279
0.012225
0.000062
-0.016156
-0.003993
-0.016156
-0.012102
-0.012102
-0.024265
-0.012102
-0.012102
-0.016156
0.000062
-0.008047
0.000062
-0.003993
0.000062
0.000062
0.008170
0.008170
0.008170
0.016279
0.000062
0.000062
0.004116
0.008170
0.000062
0.000062
0.012225
0.012225
0.008170
0.000062
0.004116
-0.003993
0.000062
0.004116
-0.003993
0.000062
0.000062
0.004116
0.004116
0.000062
0.012225
0.008170
0.024388
0.024388
0.032497
0.028442
0.028442
0.020334
0.032497
0.048714
0.048714
0.000062
-0.101298
-0.231039
-0.271583
-0.186441
-0.121570
-0.044537
0.004116
0.024388
0.044660
0.044660
0.048714
0.044660
0.048714
0.052769
0.068986
0.060878
0.052769
0.064932
0.036551
0.048714
0.060878
0.056823
0.048714
0.040606
0.040606
0.040606
0.032497
0.032497
0.032497
0.036551
0.028442
0.016279
0.016279
0.012225
0.004116
0.000062
0.000062
0.004116
0.004116
0.000062
0.004116
0.004116
0.012225
0.004116
0.012225
0.004116
0.004116
0.004116
0.008170
0.012225
0.000062
0.000062
0.000062
0.000062
0.000062
0.004116
0.000062
0.000062
0.000062
0.000062
0.000062
0.000062
0.000062
0.000062
0.000062
0.000062
0.000062
0.000062
0.008170
0.000062
0.000062
0.000062
0.000062
0.004116
0.012225
0.004116
0.024388
0.012225
0.008170
0.020334
0.008170
0.016279
0.020334
0.012225
0.020334
0.008170
0.016279
0.016279
0.020334
0.012225
0.008170
0.016279
0.004116
0.008170
0.012225
0.004116
0.008170
0.004116
0.000062
0.004116
0.020334
0.008170
0.016279
0.024388
0.016279
0.016279
0.020334
0.000062
0.008170
0.008170
0.016279
0.000062
0.008170
0.032497
0.036551
-0.003993
-0.097244
-0.235093
-0.336453
-0.267529
-0.178332
-0.093190
-0.040482
-0.003993
0.008170
0.012225
0.020334
0.008170
0.020334
0.024388
0.016279
0.012225
0.016279
0.012225
0.008170
0.008170
0.008170
0.012225
0.004116
0.000062
0.000062
0.000062
0.000062
0.000062
0.000062
-0.003993
-0.008047
-0.008047
0.000062
-0.016156
-0.012102
-0.016156
0.000062
-0.028319
-0.040482
-0.040482
-0.032374
-0.028319
-0.024265
-0.036428
-0.032374
-0.028319
-0.032374
-0.036428
-0.032374
-0.032374
-0.032374
-0.028319
-0.016156
0.000062
0.000062
0.000062
0.000062
0.000062
0.008170
0.000062
0.000062
0.000062
0.000062
0.000062
0.000062
0.000062
0.000062
0.000062
0.004116
0.004116
0.016279
0.012225
0.020334
0.000062
0.016279
0.016279
0.020334
0.024388
0.024388
0.020334
0.016279
0.032497
0.008170
0.012225
0.008170
0.012225
0.020334
0.020334
0.028442
0.032497
0.024388
0.024388
0.028442
0.040606
0.040606
0.040606
0.068986
0.052769
0.000062
-0.109407
-0.255365
-0.255365
-0.186441
-0.109407
-0.040482
0.004116
0.032497
0.036551
0.048714
0.048714
0.056823
0.056823
0.048714
0.052769
0.064932
0.064932
0.052769
0.052769
0.060878
0.044660
0.044660
0.040606
0.040606
0.044660
0.036551
0.036551
0.032497
0.032497
0.036551
0.020334
0.020334
0.020334
0.016279
0.012225
0.028442
0.012225
0.008170
0.016279
0.004116
0.004116
0.016279
0.020334
0.012225
0.000062
0.004116
0.004116
0.008170
0.004116
0.004116
0.004116
-0.003993
0.000062
0.000062
0.000062
0.008170
0.000062
0.008170
0.008170
0.004116
0.008170
0.004116
0.000062
0.000062
0.000062
0.000062
-0.003993
0.000062
-0.003993
0.012225
0.008170
-0.028319
-0.170223
-0.332399
-0.340508
-0.210767
-0.105353
-0.052646
0.000062
0.008170
0.016279
0.024388
0.012225
0.020334
0.028442
0.020334
0.020334
0.016279
0.012225
0.012225
0.012225
0.020334
0.012225
0.000062
0.012225
0.004116
0.004116
0.008170
0.004116
0.008170
0.000062
0.000062
0.000062
0.000062
0.000062
0.000062
0.000062
-0.012102
-0.012102
-0.016156
-0.012102
-0.016156
-0.020210
-0.020210
-0.012102
-0.016156
-0.020210
-0.012102
-0.008047
-0.008047
-0.003993
0.000062
-0.008047
0.000062
0.004116
0.004116
-0.003993
-0.003993
-0.003993
0.000062
0.000062
0.000062
0.008170
-0.003993
0.000062
0.000062
0.004116
0.004116
0.012225
0.012225
0.008170
0.008170
0.012225
0.008170
0.004116
0.008170
0.000062
0.008170
0.000062
0.000062
0.000062
0.000062
0.004116
0.004116
0.000062
0.000062
0.008170
0.012225
0.012225
0.012225
0.044660
0.024388
-0.012102
-0.149951
-0.299964
-0.275637
-0.166169
-0.089135
-0.024265
0.016279
0.032497
0.032497
0.032497
0.028442
0.036551
0.020334
0.020334
0.020334
0.028442
0.016279
0.004116
0.000062
-0.003993
-0.012102
-0.008047
-0.024265
-0.024265
-0.008047
-0.024265
-0.032374
-0.028319
-0.024265
-0.020210
-0.012102
-0.008047
0.000062
-0.003993
-0.008047
-0.012102
-0.012102
0.000062
0.000062
0.004116
-0.003993
0.000062
0.000062
0.000062
0.004116
0.020334
0.028442
0.028442
0.036551
0.032497
0.036551
0.036551
0.036551
0.048714
0.044660
0.040606
0.036551
0.032497
0.048714
0.032497
0.040606
0.036551
0.024388
0.032497
0.036551
0.032497
0.036551
0.032497
0.040606
0.036551
0.040606
0.044660
0.040606
0.052769
0.032497
0.036551
0.036551
0.052769
0.064932
0.024388
-0.060754
-0.214821
-0.271583
-0.186441
-0.117516
-0.048591
0.000062
0.044660
0.040606
0.048714
0.056823
0.048714
0.060878
0.040606
0.048714
0.044660
0.036551
0.040606
0.032497
0.024388
0.016279
0.004116
0.000062
0.004116
0.000062
-0.003993
0.000062
0.000062
-0.003993
-0.003993
-0.008047
-0.016156
-0.016156
-0.028319
-0.024265
-0.028319
-0.024265
-0.036428
-0.020210
-0.020210
-0.012102
-0.016156
-0.008047
-0.012102
-0.012102
-0.012102
-0.003993
0.000062
0.004116
0.008170
0.004116
0.004116
0.012225
0.012225
0.012225
0.012225
0.016279
0.016279
0.016279
0.008170
0.008170
0.008170
0.008170
0.012225
0.000062
0.000062
0.004116
0.004116
0.008170
0.000062
0.000062
0.016279
0.016279
0.028442
0.016279
0.016279
0.016279
0.012225
0.016279
0.016279
0.016279
0.016279
0.016279
0.028442
0.016279
0.008170
0.004116
0.008170
0.004116
0.036551
0.032497
0.000062
-0.093190
-0.239148
-0.316181
-0.214821
-0.125625
-0.064809
-0.003993
0.008170
0.028442
0.036551
0.044660
0.036551
0.032497
0.032497
0.036551
0.028442
0.024388
0.028442
0.008170
0.008170
0.020334
0.016279
0.020334
0.020334
0.020334
0.024388
0.008170
0.012225
0.008170
0.000062
0.012225
0.000062
0.008170
0.004116
0.004116
0.004116
0.000062
0.000062
-0.003993
-0.012102
0.000062
0.000062
0.000062
0.000062
-0.003993
0.000062
0.000062
0.000062
0.008170
0.000062
0.012225
0.004116
0.004116
0.004116
0.016279
0.024388
0.012225
0.016279
0.016279
0.012225
0.012225
0.012225
0.012225
0.004116
0.012225
0.020334
0.024388
0.012225
0.000062
0.012225
0.020334
0.024388
0.032497
0.012225
0.028442
0.016279
0.032497
0.020334
0.024388
0.032497
0.028442
0.024388
0.040606
0.028442
0.040606
0.036551
0.028442
0.024388
0.020334
0.016279
0.008170
0.020334
0.020334
0.028442
0.024388
0.020334
0.020334
0.012225
0.020334
0.044660
0.016279
-0.044537
-0.198604
-0.376997
-0.340508
-0.235093
-0.125625
-0.056700
0.000062
0.004116
0.024388
0.020334
0.012225
0.016279
0.016279
0.028442
0.024388
0.012225
0.020334
0.024388
0.020334
0.016279
0.016279
0.008170
0.008170
0.004116
0.004116
-0.008047
0.000062
0.000062
-0.008047
0.000062
-0.008047
-0.020210
-0.020210
-0.008047
-0.012102
-0.016156
-0.028319
-0.024265
-0.032374
-0.012102
-0.008047
-0.016156
-0.020210
-0.028319
-0.032374
-0.028319
-0.032374
-0.032374
-0.020210
-0.024265
-0.024265
-0.024265
-0.012102
-0.016156
-0.003993
0.000062
0.000062
-0.003993
0.000062
-0.012102
0.000062
-0.008047
0.000062
-0.003993
-0.008047
0.000062
0.000062
0.008170
0.012225
0.016279
0.016279
0.004116
0.016279
0.024388
0.020334
0.020334
0.032497
0.040606
0.024388
0.044660
0.032497
0.040606
0.032497
0.032497
0.040606
0.044660
0.028442
0.032497
0.032497
0.048714
0.052769
0.024388
-0.081026
-0.226985
-0.287801
-0.206713
-0.145897
-0.089135
-0.028319
0.000062
0.004116
0.000062
0.000062
0.004116
0.020334
0.004116
0.004116
0.000062
0.008170
0.000062
0.000062
0.004116
0.000062
0.000062
-0.008047
-0.003993
0.000062
0.000062
0.000062
-0.003993
-0.012102
-0.016156
-0.024265
-0.032374
-0.032374
-0.028319
-0.016156
-0.012102
-0.012102
-0.003993
0.000062
0.000062
0.004116
0.008170
0.004116
0.012225
0.012225
0.020334
0.028442
0.016279
0.020334
0.016279
0.012225
0.016279
0.016279
0.020334
0.020334
0.020334
0.024388
0.020334
0.024388
0.020334
0.004116
0.004116
0.012225
0.016279
0.020334
0.020334
0.020334
0.020334
0.024388
0.024388
0.036551
0.032497
0.040606
0.032497
0.040606
0.044660
0.040606
0.040606
0.028442
0.024388
0.016279
0.008170
0.012225
0.012225
0.012225
0.008170
0.000062
0.008170
0.004116
0.008170
0.008170
0.012225
0.012225
0.012225
0.016279
0.020334
0.008170
0.016279
0.016279
0.024388
0.016279
0.016279
0.020334
0.020334
0.020334
0.012225
0.016279
0.012225
0.012225
0.020334
0.020334
0.012225
0.020334
0.012225
0.016279
0.016279
0.004116
0.008170
0.012225
0.012225
0.024388
0.024388
0.024388
0.016279
0.016279
0.012225
0.016279
0.016279
0.020334
0.032497
0.040606
0.000062
-0.089135
-0.243202
-0.352671
-0.259420
-0.145897
-0.064809
-0.012102
0.024388
0.024388
0.036551
0.020334
0.028442
0.028442
0.012225
0.024388
0.016279
0.008170
0.000062
0.000062
0.000062
0.004116
0.000062
0.000062
0.000062
-0.003993
0.000062
0.000062
0.000062
0.000062
0.000062
0.000062
-0.003993
-0.008047
