0.660928
0.733907
0.669037
-1.159496
0.291978
0.689309
0.746071
0.681200
0.742016
0.746071
1.208272
-1.187877
-2.217694
0.620384
0.673092
0.628493
0.762288
0.008170
0.648765
0.875811
0.733907
-1.256802
-0.964885
0.600112
0.940682
0.750125
0.742016
0.936627
0.656874
0.652820
0.839322
0.770397
-0.981103
-1.321672
-1.098680
-1.082463
0.705527
1.094749
0.823104
0.883920
1.066368
0.750125
1.046096
0.924464
0.867703
1.123130
0.823104
1.066368
1.017715
0.912301
1.086640
0.239271
-0.652696
-0.989211
-1.098680
-0.843253
-1.078408
-0.920287
-0.863525
-1.066245
-1.248693
1.005552
1.159619
1.788051
0.681200
1.877248
-0.867579
1.074477
0.969063
-0.705404
1.042042
-0.344562
-0.871634
-0.822981
-0.847307
-0.713512
-0.672968
-0.814872
-0.737839
-0.648642
-0.839199
-0.624316
-0.632424
-0.758111
-0.604044
-0.709458
-0.551336
-0.454031
0.231162
1.633984
-0.263474
-0.652696
-0.608098
-0.660805
-0.587826
-0.644588
-0.612152
-0.579717
-0.616207
-0.571608
-0.579717
-0.608098
-0.559445
-0.474303
0.673092
-0.502684
-0.571608
-0.437813
-0.522956
-0.608098
-0.518901
-0.567554
-0.575663
-0.490521
-0.612152
-0.498629
-0.543228
-0.579717
-0.514847
-0.575663
-0.527010
-0.604044
-0.567554
-0.429705
-0.527010
-0.518901
-0.518901
-0.543228
-0.458085
-0.543228
-0.535119
-0.470249
-0.551336
-0.705404
-0.543228
-0.563500
-0.518901
-0.539173
-1.309509
-0.563500
-0.563500
0.989335
-0.563500
-0.514847
-0.579717
1.390720
1.265034
-0.709458
-0.612152
1.394774
-0.149951
1.220435
1.459645
1.488025
1.305578
-0.441868
-0.656751
1.297469
1.520461
-0.137788
0.928519
-0.595935
0.409556
0.960954
1.358285
-0.697295
0.871757
1.273142
-0.859471
-0.843253
1.277197
1.496134
1.192054
-0.571608
-0.713512
-0.847307
-0.563500
-0.932450
0.883920
-0.628370
1.115021
1.423155
-0.214821
-0.494575
-0.652696
-0.806764
-0.709458
-0.750002
-0.891906
-0.689186
-0.612152
-0.579717
-0.770274
-0.940559
1.281251
-0.818927
-0.883797
-0.835144
-0.887851
1.009607
1.151510
-0.802709
0.960954
0.879866
1.192054
1.086640
1.220435
1.102858
1.196109
-0.822981
2.238089
-0.474303
-0.928395
-1.009483
-0.677023
-1.629806
1.025824
-0.782437
-1.078408
-0.810818
-1.496011
-0.985157
-0.677023
-1.037864
-0.879743
-0.904069
0.093313
1.240707
1.050150
1.123130
1.167728
0.981226
1.131238
-0.960831
-1.001375
1.098803
1.325850
1.102858
1.074477
2.084022
-1.491957
0.924464
1.074477
1.163674
0.462263
1.244762
-0.952722
0.948791
1.167728
0.985280
1.115021
1.098803
1.386665
-0.713512
-1.041919
1.033933
1.208272
0.892029
1.167728
1.094749
-1.009483
-1.062191
0.908247
0.689309
0.389284
0.944736
-0.226985
0.887975
1.167728
1.224490
0.819050
-0.677023
-1.090571
0.660928
-0.697295
0.729853
1.317741
-0.644588
-1.143278
-0.668914
-1.155442
-0.855416
-0.818927
-1.127061
-0.705404
-1.062191
-0.924341
0.352794
1.228544
1.333958
-0.981103
-1.025701
-0.754056
-1.110843
-0.786492
-0.928395
-1.066245
-0.766220
-1.082463
-0.867579
-0.859471
-1.033810
-0.782437
-0.985157
-0.940559
-0.814872
-1.037864
-0.758111
-0.981103
-0.977048
-0.835144
-1.029755
-0.839199
-0.952722
-0.997320
-0.839199
-1.029755
-0.871634
-0.936504
-1.009483
0.729853
1.021770
1.143402
-0.916232
-1.058136
1.102858
-0.936504
-0.972994
1.042042
1.123130
1.025824
-0.754056
-1.017592
0.932573
1.755616
0.989335
-0.944613
1.009607
1.877248
0.729853
0.385229
-0.940559
0.417665
-0.908123
1.094749
0.871757
1.119075
0.956899
0.912301
1.082586
-1.110843
0.960954
0.656874
-0.652696
0.916355
0.535242
0.948791
0.924464
0.997443
0.896083
1.009607
0.960954
0.904192
0.636602
0.348740
0.916355
0.928519
0.855539
0.956899
0.871757
-0.717567
-1.143278
-1.183822
-1.062191
0.839322
-1.013538
-1.621697
-1.268965
-1.013538
-1.256802
0.596058
0.965008
0.798778
-1.021647
-1.994702
0.721744
0.993389
0.782560
0.883920
-1.086517
-0.056700
-0.827035
-1.216258
0.689309
-0.952722
-1.390597
-1.139224
-1.066245
-1.423032
-0.924341
0.648765
0.851485
0.981226
0.571732
-0.952722
0.644711
0.778506
-0.928395
0.446045
-0.879743
0.527133
0.636602
1.188000
0.429828
1.054205
0.871757
-1.427086
-0.900015
-1.536555
-1.078408
-1.098680
-1.459521
1.127184
0.669037
0.936627
0.969063
0.644711
1.090694
0.737962
0.855539
-0.737839
0.523079
1.070422
0.863648
0.746071
1.098803
0.697418
0.997443
0.960954
0.746071
0.194673
0.673092
0.977171
1.305578
-1.232475
1.090694
0.851485
0.989335
1.017715
0.875811
-0.855416
-1.135170
-1.021647
-0.863525
-1.175714
-0.859471
-1.050027
-1.033810
-2.359598
0.819050
1.208272
1.143402
0.875811
1.313686
0.928519
1.155565
1.216381
0.932573
1.338013
1.013661
1.098803
-0.312127
0.409556
1.329904
1.179891
1.042042
1.382611
-0.989211
-0.802709
1.188000
1.151510
1.362339
1.094749
1.013661
-0.721621
-0.944613
-0.677023
-0.859471
-0.786492
-0.672968
-0.887851
-0.636479
-0.291855
1.232598
-0.555391
-0.863525
-0.664860
-0.644588
-0.843253
0.405501
-0.745948
-0.693240
-0.612152
-0.774328
-0.575663
-0.672968
-0.689186
-0.567554
-0.729730
-0.583772
-0.636479
-0.668914
-0.559445
-0.656751
-0.579717
-0.567554
-0.644588
-0.522956
-0.648642
-0.591880
-0.555391
-0.652696
-0.531064
-0.612152
-0.583772
-0.563500
-0.616207
-0.522956
-0.583772
-0.608098
-0.522956
-0.608098
-0.563500
-0.531064
-0.591880
-0.486466
-0.579717
-0.543228
-0.567554
-0.599989
-0.527010
-0.547282
-0.555391
-0.551336
-0.599989
-0.547282
-0.612152
-0.599989
-0.575663
-0.620261
-0.579717
-0.579717
-0.579717
-0.563500
-0.624316
-0.583772
-0.612152
-0.620261
-0.421596
-1.564936
-0.640533
1.127184
1.293414
1.354230
1.358285
1.861030
0.113585
-0.628370
1.277197
1.410992
1.042042
1.305578
1.423155
1.256925
-0.393215
2.193491
0.920410
-0.121570
-0.839199
-0.664860
-1.950104
1.143402
-0.571608
1.106912
1.273142
-0.583772
0.956899
2.643529
-0.766220
0.255489
1.427209
-0.705404
-0.847307
-0.089135
-1.333835
1.277197
1.123130
1.163674
1.200163
0.733907
-0.822981
-0.977048
-0.956776
-0.871634
0.535242
-0.810818
-0.952722
-1.021647
-0.810818
-1.127061
-0.900015
-2.221748
0.255489
0.916355
-0.956776
-1.078408
-0.583772
2.246198
0.717690
-1.025701
-0.368889
-0.409433
1.354230
1.058259
1.050150
0.709581
1.236653
0.766343
1.119075
-0.405378
0.283869
-0.510792
-1.159496
-1.260856
-0.863525
-1.390597
-0.968939
-1.098680
-1.313563
-0.883797
-1.350053
0.320359
-1.025701
-1.394651
0.766343
-0.243202
0.754179
0.981226
0.709581
0.883920
0.855539
0.717690
1.001498
0.737962
-1.131115
0.847431
0.758234
1.009607
0.701472
0.218999
-0.644588
0.356849
-0.985157
0.644711
0.839322
0.956899
0.555514
1.033933
0.705527
0.778506
0.997443
0.600112
0.721744
0.320359
0.737962
1.017715
0.660928
0.912301
0.900138
0.729853
1.046096
0.725799
0.887975
0.932573
-1.277074
0.916355
0.794723
0.904192
0.883920
0.806887
0.948791
0.819050
0.733907
-1.058136
-1.759547
0.871757
0.920410
0.859594
0.936627
0.916355
1.204218
-1.041919
-1.183822
-1.159496
-0.895960
0.255489
1.001498
1.459645
-1.082463
-0.312127
-1.013538
-1.001375
0.531188
-1.025701
0.948791
0.810941
-0.847307
-1.260856
-1.017592
-1.009483
-1.195986
-0.843253
-1.171659
-1.496011
-0.790546
-1.191931
0.851485
0.819050
1.001498
-0.908123
-1.187877
0.466317
0.117639
0.600112
0.750125
0.539296
-1.204094
-1.147333
-1.358162
-0.575663
0.506861
1.062314
0.664983
-0.928395
-0.928395
-1.058136
1.013661
-0.863525
-1.102735
-0.960831
-0.932450
-1.641969
-0.891906
0.977171
-0.879743
-0.920287
-1.362216
-1.633861
-0.843253
0.798778
-0.790546
0.863648
1.248816
-0.478357
-1.062191
1.009607
-0.689186
0.689309
-0.867579
0.685255
-1.212203
0.798778
1.147456
-1.455467
-0.900015
1.196109
2.688127
1.021770
1.317741
0.952845
1.220435
-0.879743
-1.155442
-0.137788
-0.158060
-0.932450
-0.847307
-1.775764
1.216381
1.074477
0.502807
1.504243
-1.427086
-0.944613
-1.382488
1.143402
-0.389161
1.054205
0.170346
1.163674
-0.936504
0.020334
-0.948667
-1.459521
0.900138
1.151510
0.944736
1.033933
1.228544
0.892029
1.147456
1.200163
0.624439
-0.624316
1.042042
1.123130
2.534060
-0.486466
1.216381
1.094749
1.220435
1.155565
-0.855416
-0.847307
-0.936504
-2.079844
1.029879
1.240707
1.273142
-0.948667
-0.717567
1.074477
-0.709458
-0.762165
1.009607
1.443427
1.070422
-0.733784
-0.660805
-0.932450
-1.435195
1.050150
1.256925
1.451536
-0.644588
-0.527010
-1.021647
-0.729730
-0.579717
-0.964885
-0.563500
-0.733784
-0.782437
-0.510792
-0.879743
-0.591880
-0.705404
-0.843253
-0.518901
-0.806764
1.366393
1.050150
1.256925
1.492080
1.338013
1.370448
1.524515
1.070422
1.488025
1.277197
1.350176
0.093313
1.139347
-0.498629
-0.287801
-0.198604
-0.413487
-0.725676
-0.531064
-0.154006
-0.713512
-0.385106
-0.608098
-0.522956
-0.433759
-0.697295
1.106912
-0.421596
-0.612152
-0.441868
-0.604044
1.524515
-0.421596
-0.591880
-1.155442
-0.668914
-0.417541
-0.397269
-0.591880
-0.474303
-0.441868
-0.571608
-0.368889
-0.518901
-0.474303
-0.393215
-0.563500
-0.405378
-0.486466
-0.482412
-0.397269
-0.551336
-0.405378
-0.462140
-0.518901
-0.364834
-1.378434
-0.210767
-0.417541
-0.494575
1.029879
-0.417541
-0.218876
-0.170223
1.394774
-0.251311
-0.417541
-0.518901
-0.677023
-0.741893
-0.575663
-0.141842
-0.328345
-0.320236
-0.486466
-0.514847
-0.462140
-0.547282
-0.462140
-0.498629
-0.543228
-0.454031
-0.543228
-0.506738
-0.968939
-0.243202
-0.490521
-0.531064
-0.575663
-0.543228
-0.656751
-0.527010
-0.583772
-0.636479
-0.543228
-0.668914
-0.567554
-0.583772
-0.668914
-0.579717
-1.195986
-0.652696
1.358285
1.378557
1.374502
1.313686
1.390720
1.309632
1.309632
1.354230
-0.591880
-0.924341
1.224490
1.329904
1.248816
2.894901
1.123130
-0.567554
1.110966
-0.822981
-0.928395
-0.822981
1.224490
3.093567
0.190618
0.648765
1.139347
1.321795
0.823104
1.333958
-0.900015
-0.985157
-0.591880
-1.090571
0.673092
1.159619
0.985280
-0.770274
0.908247
-0.904069
-0.891906
-1.208149
-0.766220
-0.912178
-0.972994
-0.859471
-1.212203
0.348740
-1.755492
-1.017592
-0.721621
-1.179768
-1.009483
0.977171
0.458208
-0.879743
-1.516283
1.009607
-0.981103
0.486589
1.086640
0.952845
0.863648
1.110966
0.794723
-0.044537
0.559568
-0.239148
-0.972994
0.729853
-0.222930
-1.074354
0.267652
-0.486466
-1.260856
0.510916
1.050150
-1.345998
-0.916232
-0.956776
-0.563500
0.871757
-0.166169
0.932573
0.839322
0.774451
0.936627
0.750125
0.859594
0.859594
0.770397
0.835267
-1.216258
0.774451
0.908247
0.794723
0.798778
0.875811
0.770397
0.887975
0.839322
0.802832
0.851485
0.766343
0.855539
0.831213
0.587949
0.454154
0.770397
0.843376
-1.204094
-1.313563
-1.698731
0.746071
0.798778
1.094749
0.733907
0.936627
0.794723
0.794723
0.916355
0.713636
0.883920
0.847431
0.786615
0.904192
0.766343
0.900138
0.819050
0.275761
0.896083
-1.216258
-1.054082
-1.110843
0.778506
-0.616207
-1.179768
-1.240584
-1.017592
-1.212203
-1.147333
-1.151387
-1.232475
-1.110843
-1.200040
-1.183822
-1.135170
-1.228421
-1.123006
-1.143278
-1.159496
-1.037864
-0.989211
-1.086517
-1.439249
-1.216258
-1.321672
0.596058
-0.129679
-0.425650
0.733907
0.969063
0.742016
0.831213
0.928519
0.575786
-0.389161
0.356849
-1.187877
-1.094626
-1.354107
-1.013538
-1.277074
-1.005429
0.198727
0.669037
0.952845
0.810941
0.762288
1.163674
0.592004
-0.904069
-1.078408
-1.256802
-1.062191
-1.350053
-1.143278
0.170346
0.652820
2.862466
0.774451
0.571732
0.259543
0.774451
0.640656
-1.118952
0.348740
0.685255
0.762288
-1.200040
0.713636
0.758234
0.912301
0.429828
0.814995
0.758234
0.742016
0.806887
0.681200
0.798778
0.762288
0.705527
-1.200040
0.616330
0.782560
0.332522
-1.508174
0.794723
-0.527010
0.713636
0.733907
0.312250
0.981226
-1.131115
-1.054082
-1.305454
-1.183822
0.352794
0.790669
0.677146
0.596058
-1.200040
-1.471685
-1.268965
-1.285182
-0.121570
-1.187877
-1.289237
0.624439
0.819050
0.527133
0.790669
0.669037
0.559568
0.814995
0.539296
1.593440
0.352794
0.746071
0.810941
0.648765
-1.337890
-1.264910
-1.496011
0.774451
-1.220312
0.604167
0.778506
0.235217
0.664983
0.393338
-0.786492
-1.277074
0.673092
-1.504120
-1.277074
-1.337890
0.081150
-1.268965
0.693364
-1.058136
0.632548
-1.341944
0.742016
0.628493
1.070422
-1.386542
-1.260856
0.247380
0.697418
0.883920
0.685255
0.802832
0.843376
0.693364
0.867703
0.733907
0.814995
0.912301
0.729853
0.892029
0.786615
0.790669
0.892029
-1.175714
0.827159
0.847431
0.839322
0.843376
0.669037
-0.932450
0.819050
0.940682
0.904192
0.831213
0.989335
0.871757
0.948791
0.628493
1.690745
1.042042
0.932573
0.924464
1.062314
0.908247
1.078531
1.009607
0.936627
1.123130
0.969063
1.082586
1.090694
-0.985157
-0.912178
0.928519
1.188000
-1.670350
-1.021647
-0.786492
-2.047409
-0.924341
-0.741893
-0.920287
-0.843253
-0.754056
-0.912178
-0.681077
-0.814872
-0.782437
-0.677023
-0.822981
-0.652696
-0.741893
-0.754056
-0.620261
-0.782437
-0.664860
-0.672968
0.742016
-0.555391
-0.737839
-0.681077
-0.575663
-0.766220
-0.551336
-0.681077
-0.656751
-0.514847
-0.729730
-0.518901
-0.599989
-0.660805
-0.494575
-0.693240
-0.539173
-0.494575
-0.632424
-0.478357
-0.608098
-0.535119
1.463699
1.439373
1.504243
-0.575663
-0.527010
-0.506738
-0.539173
-0.486466
-0.543228
-0.482412
-0.454031
-0.527010
-0.502684
-1.216258
1.192054
0.385229
0.202781
-0.790546
-0.478357
0.965008
1.082586
0.052769
1.415046
0.218999
0.770397
0.806887
1.167728
0.158183
1.074477
-0.040482
-0.109407
0.478480
1.029879
-0.336453
-0.486466
-0.502684
-0.320236
-0.575663
-0.381052
-0.441868
-0.506738
-0.332399
-0.547282
-0.389161
-0.385106
-0.551336
-0.324290
-0.518901
-0.413487
-0.360780
-0.518901
-0.344562
-0.470249
-0.466194
-0.352671
-0.535119
-0.397269
-0.458085
-0.502684
-0.376997
-0.518901
-0.417541
-0.458085
-0.518901
-0.417541
-0.486466
-0.466194
-0.445922
-0.555391
-0.409433
-0.547282
-0.510792
-1.179768
-0.125625
-0.449977
1.439373
1.471808
1.394774
1.224490
1.565059
-0.510792
1.269088
-1.455467
1.273142
1.070422
-0.352671
-0.855416
-0.283746
1.021770
1.293414
-1.273019
-0.960831
0.981226
1.463699
-0.778383
1.609657
-1.471685
3.057077
-0.458085
-0.750002
-0.620261
-0.571608
-0.790546
2.635420
1.342067
2.396210
-0.904069
1.216381
-0.599989
-1.560881
-0.624316
-0.462140
-0.806764
-0.725676
-0.551336
-0.900015
-0.640533
1.058259
-0.299964
1.435318
-0.668914
-0.531064
1.139347
1.066368
-0.575663
-0.944613
0.989335
1.240707
1.216381
1.435318
-1.678459
-0.372943
1.228544
-0.729730
-0.717567
-0.839199
-0.668914
-0.810818
-0.758111
1.256925
1.200163
1.342067
-0.814872
-0.778383
-0.778383
-0.831090
-0.782437
-0.782437
-0.818927
-0.794600
-0.827035
1.139347
1.240707
1.200163
0.924464
0.239271
-1.025701
-0.729730
-0.531064
-0.855416
-0.835144
-0.891906
-0.291855
1.183946
1.155565
-0.786492
1.106912
-0.429705
-0.689186
1.017715
0.729853
1.102858
1.212326
-0.494575
-1.013538
-0.701349
-0.859471
-0.883797
-0.697295
-0.948667
-0.766220
-0.806764
1.037987
1.338013
-0.855416
1.131238
1.297469
-0.348617
-0.806764
0.985280
1.151510
1.273142
1.277197
1.240707
1.192054
0.790669
1.240707
1.110966
1.232598
1.163674
1.135293
1.248816
1.143402
1.183946
2.059695
0.656874
1.228544
1.135293
1.236653
-0.417541
0.235217
0.559568
1.171782
-0.778383
-0.839199
-0.900015
-0.766220
-0.904069
-1.678459
-0.798655
-0.883797
-0.745948
-0.904069
-0.794600
-0.798655
-0.904069
-0.750002
-0.891906
-0.814872
-0.798655
-0.912178
-0.806764
-0.859471
-0.835144
-0.774328
-0.871634
-0.782437
-0.664860
-1.548718
-0.827035
-0.904069
-0.806764
-0.895960
-0.863525
-0.802709
-0.908123
1.131238
1.171782
-1.147333
-0.895960
0.656874
1.171782
1.094749
1.171782
1.131238
1.066368
-0.806764
1.013661
1.139347
-0.681077
-1.070299
-0.827035
-0.948667
-0.997320
-1.025701
-1.078408
-0.624316
-0.831090
-0.672968
-1.208149
0.024388
0.628493
0.798778
-0.689186
-0.847307
0.900138
0.867703
0.742016
-1.127061
-0.713512
-0.304018
-0.831090
0.247380
0.847431
1.143402
0.879866
0.993389
-0.721621
0.758234
1.094749
0.896083
-1.118952
-1.370325
0.251434
-0.782437
0.441991
-1.163550
-0.875688
0.502807
1.098803
-1.058136
-1.309509
1.046096
0.746071
0.940682
0.956899
0.178455
-0.904069
-1.285182
-0.847307
0.956899
0.693364
0.729853
0.729853
-1.033810
0.592004
0.685255
1.025824
0.693364
0.827159
0.912301
0.620384
0.948791
0.243325
0.697418
0.883920
1.654256
-0.056700
0.697418
-0.632424
0.494698
0.575786
0.908247
0.721744
0.664983
-1.050027
-1.305454
-2.290673
-1.021647
-1.244638
-1.037864
-1.386542
0.782560
0.855539
0.555514
0.932573
0.648765
0.721744
0.754179
0.596058
0.920410
0.721744
-2.696113
0.754179
0.644711
0.912301
0.612276
0.794723
0.709581
0.620384
0.900138
0.693364
0.774451
0.863648
0.664983
-1.102735
0.648765
0.754179
-1.041919
-1.431141
-1.066245
-1.200040
-1.362216
-0.989211
0.628493
1.751561
0.916355
-1.313563
-1.901451
-1.358162
0.304141
0.827159
-1.305454
0.973117
0.810941
0.956899
0.944736
0.819050
0.993389
0.867703
0.928519
1.005552
0.855539
1.021770
0.936627
0.940682
0.940682
0.892029
-0.575663
-0.543228
0.835267
-1.763601
0.855539
0.685255
1.086640
-1.127061
-1.617643
0.794723
0.766343
1.147456
0.685255
1.179891
0.948791
1.131238
1.151510
0.908247
-0.599989
-0.981103
0.819050
1.033933
0.863648
1.390720
-0.729730
0.774451
-1.171659
-0.977048
-0.745948
-0.535119
-1.045973
-0.429705
-0.810818
-0.790546
-0.445922
-0.936504
-0.486466
-0.644588
-0.762165
-0.364834
-1.873070
-0.543228
-0.575663
-0.729730
-0.308073
0.332522
-0.851362
-0.174278
-0.502684
0.600112
-0.182386
-0.190495
-0.583772
-0.851362
-0.214821
-0.851362
-0.109407
-0.093190
-0.332399
-0.186441
1.317741
2.250252
0.782560
1.013661
1.058259
-0.283746
-0.595935
-0.226985
-0.429705
-0.393215
-0.226985
-0.522956
-0.222930
-0.348617
-0.385106
-0.170223
-0.433759
-0.226985
-0.299964
-0.393215
-0.174278
-0.389161
-0.231039
-0.255365
-0.368889
-0.178332
-0.344562
-0.279692
-0.174278
-0.693240
-0.308073
0.044660
-0.271583
-0.182386
-0.340508
-0.158060
-0.255365
-0.247257
-0.166169
-0.299964
-0.182386
-0.239148
-0.275637
-0.158060
-0.287801
-0.174278
-0.214821
-0.235093
-0.141842
-0.263474
-0.202658
-0.170223
-0.255365
-0.158060
-0.247257
-0.255365
-0.202658
-0.299964
-0.194550
-0.255365
-0.271583
-0.222930
-0.291855
-0.214821
-0.239148
-0.299964
-0.218876
-0.295909
-0.255365
-0.259420
-0.328345
-0.251311
-0.312127
-0.312127
-0.267529
-0.316181
-0.251311
-0.308073
-0.320236
-0.299964
-0.356725
-0.299964
-0.360780
-0.356725
-0.320236
-0.397269
-0.356725
-0.376997
-0.385106
-0.385106
-0.405378
-0.304018
-0.486466
-0.454031
-0.904069
1.536678
-0.352671
-0.441868
0.052769
1.419101
1.479917
-0.413487
1.516406
-0.518901
0.656874
-0.640533
-0.421596
-1.114898
1.427209
1.601549
1.402883
-0.518901
-0.604044
-0.531064
1.556950
1.354230
1.179891
-0.571608
-0.283746
-0.559445
-0.701349
1.248816
1.463699
1.285306
-0.595935
-1.933886
1.175837
1.532624
1.260979
-1.106789
-0.008047
-0.831090
1.427209
-0.741893
-0.770274
-2.112279
-0.859471
-0.701349
-0.527010
-0.867579
-0.518901
-1.082463
0.478480
-0.222930
0.920410
-0.685132
-0.814872
-0.831090
-0.664860
1.029879
1.301523
-0.762165
0.802832
1.374502
-0.920287
-1.398706
1.269088
1.042042
1.289360
1.021770
0.717690
-0.502684
-1.062191
-0.863525
0.583895
-0.539173
1.167728
0.989335
1.135293
-0.985157
-1.041919
-0.900015
-1.062191
-0.972994
-0.239148
-1.013538
1.009607
0.977171
-0.786492
0.916355
1.009607
1.074477
0.883920
1.119075
0.912301
0.952845
1.042042
0.843376
1.042042
0.896083
-0.672968
-1.033810
0.129802
-0.648642
-1.135170
-0.356725
1.066368
0.802832
0.985280
0.936627
0.806887
1.042042
0.827159
0.908247
0.956899
0.806887
1.021770
0.867703
0.900138
0.989335
-0.636479
0.944736
0.900138
0.912301
-1.102735
-1.459521
0.839322
0.904192
-1.135170
-1.183822
-1.118952
-1.171659
-1.139224
-1.123006
-1.167605
-1.135170
-1.171659
-1.143278
-1.118952
-1.175714
-1.151387
-1.151387
-1.167605
-1.118952
-1.187877
-1.155442
-2.416359
0.794723
1.252870
0.510916
-1.212203
-1.041919
-1.224366
1.033933
0.940682
0.782560
0.908247
0.875811
0.823104
0.944736
0.835267
0.879866
0.883920
0.819050
0.940682
0.806887
0.839322
0.896083
0.798778
0.908247
0.855539
-1.179768
-1.220312
-1.220312
-1.147333
0.348740
0.762288
-1.094626
-1.625752
-1.114898
0.790669
0.863648
1.719126
0.758234
0.944736
0.843376
0.896083
0.912301
0.782560
0.936627
1.175837
0.863648
0.928519
-0.814872
0.916355
0.896083
0.928519
0.900138
1.390720
0.644711
-1.110843
-1.167605
-1.106789
-1.106789
-1.062191
-1.070299
-0.522956
-0.778383
-1.074354
-1.143278
-1.033810
-1.086517
-1.074354
-0.754056
-1.094626
0.563623
0.186564
0.981226
1.001498
1.066368
0.981226
1.037987
-0.681077
0.969063
1.062314
0.819050
0.977171
1.078531
2.063750
-0.891906
1.001498
0.944736
1.492080
-2.566372
1.042042
1.102858
-0.920287
-0.964885
-0.900015
1.037987
-0.879743
-0.900015
-0.989211
-0.810818
-0.972994
-0.891906
-0.859471
-1.617643
-0.847307
1.025824
1.216381
1.256925
-0.506738
-0.778383
-0.895960
-0.806764
1.196109
1.200163
1.329904
1.171782
2.898956
1.333958
1.220435
1.313686
1.305578
1.252870
1.333958
1.277197
-1.390597
-0.741893
-0.741893
-1.236530
1.155565
0.543351
-0.591880
1.301523
-0.336453
-0.774328
-0.628370
-0.449977
-0.863525
-0.368889
-0.648642
-0.575663
-0.344562
-0.770274
-0.405378
1.463699
1.455590
1.325850
1.301523
-0.251311
-0.502684
-0.644588
0.770397
-0.664860
-0.348617
-0.372943
-0.575663
-0.226985
-0.454031
-0.376997
-0.295909
-0.535119
-0.267529
-0.454031
-0.393215
-0.218876
-0.510792
-0.194550
-0.145897
-0.985157
-0.158060
-0.413487
-0.182386
-0.312127
-0.324290
-0.133734
-0.372943
-0.174278
-0.231039
-0.308073
-0.117516
-0.304018
-0.202658
-0.178332
-0.283746
-0.133734
-0.287801
-0.178332
-0.149951
-0.263474
-0.125625
-0.226985
-0.170223
-0.097244
-0.235093
-0.064809
-0.162114
-0.186441
-0.081026
-0.226985
-0.101298
-0.137788
-0.125625
-0.032374
-0.166169
-0.081026
-0.085081
-0.145897
-0.032374
-0.105353
-0.101298
-0.060754
-0.113462
-0.036428
-0.089135
-0.081026
-0.012102
-0.113462
-0.028319
-0.060754
-0.089135
-0.024265
-0.097244
-0.008047
-0.024265
-0.072918
-0.044537
-0.068863
-0.060754
-0.048591
-0.048591
-0.016156
-0.052646
-0.052646
-0.020210
-0.044537
-0.024265
-0.003993
-0.028319
0.008170
-0.068863
-0.020210
-0.024265
-0.048591
-0.020210
-0.052646
-0.028319
-0.040482
-0.032374
-0.012102
-0.060754
-0.072918
-0.032374
-0.064809
-0.048591
-0.056700
-0.056700
-0.044537
-0.081026
-0.028319
-0.052646
-0.068863
-0.052646
-0.089135
-0.081026
-0.081026
-0.113462
-0.093190
-0.097244
-0.105353
-0.093190
-0.125625
-0.097244
-0.133734
-0.149951
-0.154006
-0.145897
-0.141842
-0.149951
-0.162114
-0.194550
-0.210767
-0.190495
-0.178332
-0.239148
-0.231039
-0.222930
-0.239148
-0.247257
-0.255365
-0.226985
-0.263474
-0.235093
-0.279692
-0.283746
-0.271583
-0.348617
-0.312127
-0.304018
-0.324290
-0.316181
-0.336453
-0.356725
-0.340508
-0.356725
-0.397269
-0.372943
-0.393215
-0.421596
-0.445922
-0.429705
-0.206713
-0.449977
-1.045973
1.386665
-0.429705
-0.551336
1.232598
-0.214821
-0.660805
-0.502684
-0.960831
-0.336453
-0.113462
-0.616207
-1.123006
-0.482412
-0.798655
-0.531064
-0.652696
-0.741893
-0.340508
-0.640533
1.362339
-0.393215
-0.470249
0.640656
1.273142
1.248816
1.338013
2.262415
-0.672968
-0.855416
-0.863525
-0.701349
-1.013538
-0.802709
1.102858
-0.972994
-0.794600
-1.098680
-0.847307
-1.013538
-1.074354
-2.108225
1.828595
0.677146
0.997443
-1.143278
-0.389161
0.231162
1.074477
0.997443
0.709581
1.167728
0.709581
0.924464
0.989335
0.632548
1.029879
0.729853
0.786615
0.952845
1.115021
0.948791
0.721744
0.705527
0.916355
0.539296
0.827159
0.705527
0.600112
0.916355
0.531188
0.758234
0.746071
0.539296
0.547405
0.551460
0.604167
-1.123006
-1.577099
-1.248693
-1.345998
-1.114898
0.502807
-1.524392
-1.382488
-1.483848
0.510916
0.624439
0.182509
0.401447
1.155565
-0.068863
0.190618
0.490644
0.539296
0.551460
0.458208
0.583895
0.486589
0.510916
0.559568
0.454154
0.551460
0.466317
0.470372
0.563623
0.433882
0.502807
0.494698
0.429828
0.519024
0.446045
0.510916
0.454154
0.450100
0.474426
0.446045
0.474426
0.498752
0.458208
0.506861
0.474426
0.450100
0.482535
0.450100
0.514970
0.466317
0.494698
-1.483848
0.381175
0.559568
0.571732
0.405501
0.612276
0.446045
0.494698
0.596058
0.437936
-2.485284
0.093313
0.535242
0.701472
0.356849
-0.198604
-1.459521
0.441991
-1.228421
0.344685
-1.285182
-0.571608
-1.646024
0.624439
0.405501
0.750125
0.693364
0.458208
0.920410
0.494698
0.725799
0.810941
0.482535
0.920410
0.587949
0.652820
0.883920
0.482535
-1.593317
-1.362216
-1.362216
-1.045973
0.486589
0.737962
0.806887
0.608221
-0.932450
-1.471685
-1.102735
-1.001375
-1.427086
-0.940559
-2.225803
-0.441868
-0.972994
-1.358162
0.486589
0.117639
0.794723
1.062314
0.778506
1.001498
1.005552
0.814995
1.115021
0.879866
0.636602
0.628493
0.855539
1.382611
-0.818927
-2.246075
1.050150
-0.993266
0.920410
1.050150
1.171782
1.058259
-0.599989
1.094749
-0.895960
0.774451
1.082586
-0.320236
-0.904069
1.147456
1.346121
1.435318
-0.863525
-0.806764
-0.847307
1.386665
-0.818927
-0.652696
-0.733784
-0.758111
-0.583772
-1.568990
-0.660805
-0.681077
-0.599989
-0.612152
1.127184
1.423155
1.443427
0.673092
-0.514847
-0.644588
1.131238
-0.376997
0.709581
-0.320236
-0.255365
-0.133734
1.139347
-0.101298
-0.445922
-0.470249
-0.583772
-0.360780
-0.539173
-0.433759
1.123130
-0.089135
1.058259
-0.429705
-1.037864
-0.429705
-0.397269
-0.356725
-0.352671
-0.271583
-0.389161
-0.348617
-0.287801
-0.389161
-0.279692
-0.291855
-0.328345
-0.231039
-0.324290
-0.259420
-0.259420
-0.291855
-0.206713
-0.279692
-0.255365
-0.141842
-0.251311
-0.190495
-0.226985
-0.222930
-0.206713
-0.243202
-0.166169
-0.202658
-0.190495
-0.174278
-0.210767
-0.149951
-0.158060
-0.154006
-0.121570
-0.162114
-0.125625
-0.174278
-0.174278
-0.109407
-0.129679
-0.117516
-0.097244
-0.133734
-0.068863
-0.105353
-0.101298
-0.052646
-0.105353
-0.056700
-0.081026
-0.101298
-0.072918
-0.081026
-0.064809
-0.060754
-0.052646
-0.040482
-0.085081
-0.060754
-0.044537
-0.060754
-0.068863
-0.076972
-0.052646
-0.028319
-0.068863
-0.044537
-0.032374
-0.060754
-0.032374
-0.044537
-0.052646
-0.032374
-0.081026
-0.036428
-0.089135
-0.040482
-0.040482
-0.081026
-0.040482
-0.064809
-0.064809
-0.085081
-0.085081
-0.081026
-0.101298
-0.105353
-0.072918
-0.072918
-0.076972
-0.105353
-0.093190
-0.097244
-0.109407
-0.105353
-0.137788
-0.129679
-0.133734
-0.129679
-0.109407
-0.129679
-0.125625
-0.133734
-0.133734
-0.129679
-0.129679
-0.141842
-0.141842
-0.145897
-0.186441
-0.158060
-0.162114
-0.158060
-0.178332
-0.198604
-0.174278
-0.198604
-0.194550
-0.222930
-0.222930
-0.247257
-0.271583
-0.226985
-0.247257
-0.271583
-0.275637
-0.255365
-0.271583
-0.259420
-0.267529
-0.304018
-0.279692
-0.304018
-0.320236
-0.336453
-0.324290
-0.332399
-0.312127
-0.356725
-0.356725
-0.340508
-0.368889
-0.360780
-0.364834
-0.368889
-0.385106
-0.397269
-0.405378
-0.425650
-0.449977
-0.543228
-0.672968
-1.471685
1.402883
0.300087
-0.466194
-0.579717
-1.325726
1.382611
1.504243
0.356849
-0.632424
1.771833
1.427209
-0.251311
1.524515
1.354230
-0.445922
-0.737839
0.737962
-0.506738
1.033933
1.524515
1.346121
1.269088
3.182764
1.252870
1.650201
-0.685132
-0.810818
1.033933
1.017715
-0.741893
0.571732
-2.096062
1.220435
-0.754056
-0.660805
-0.920287
1.301523
-0.620261
-0.733784
-0.790546
-0.863525
-0.814872
-1.398706
-0.908123
1.143402
-0.818927
-1.143278
-0.908123
-0.851362
-0.847307
-2.002811
-0.681077
-0.782437
0.190618
0.973117
1.889411
0.908247
-0.835144
0.924464
0.952845
1.074477
0.758234
0.766343
-0.989211
0.373066
1.042042
-0.636479
0.279815
0.158183
-1.536555
0.823104
2.104294
-2.023083
-1.224366
-1.110843
-1.155442
-1.155442
-1.094626
-1.410869
-1.110843
-1.175714
-1.277074
0.604167
0.786615
0.794723
0.782560
0.742016
1.106912
0.758234
0.831213
0.685255
0.575786
0.198727
-0.093190
-1.702785
-0.498629
0.377121
0.300087
0.214945
-1.224366
-0.381052
0.628493
0.717690
0.555514
0.689309
0.628493
0.583895
0.725799
0.539296
0.644711
0.612276
0.539296
0.652820
0.555514
0.587949
0.616330
0.514970
0.616330
0.539296
0.555514
0.600112
0.494698
0.616330
0.531188
0.531188
-0.790546
1.106912
-0.539173
0.336577
0.433882
-1.281128
-1.556827
0.555514
0.640656
0.360903
0.689309
0.450100
0.486589
0.652820
0.385229
1.597494
-1.435195
-1.597371
0.563623
0.332522
0.519024
0.559568
0.462263
0.551460
0.328468
0.454154
0.320359
0.202781
0.125748
0.514970
-1.483848
-1.475739
-1.544664
-1.451413
-1.548718
0.454154
1.925900
0.559568
0.482535
0.527133
0.519024
0.490644
0.531188
0.985280
-0.563500
0.235217
0.527133
0.604167
-1.520337
0.539296
0.571732
0.543351
0.535242
0.608221
0.543351
0.571732
0.559568
0.531188
0.474426
0.559568
0.583895
0.604167
0.478480
0.587949
0.575786
-0.932450
0.587949
0.462263
-1.285182
-2.586644
-1.382488
0.737962
-1.029755
-1.313563
-1.394651
-0.847307
-0.656751
-1.289237
0.664983
-0.097244
0.547405
-0.060754
0.125748
-1.281128
-1.309509
-1.208149
-1.102735
0.697418
0.823104
0.737962
0.758234
0.778506
0.750125
0.608221
0.754179
-1.593317
0.729853
-1.131115
0.810941
0.393338
-1.025701
-1.345998
0.806887
0.940682
1.402883
-0.944613
-1.228421
0.746071
1.062314
0.677146
0.912301
0.932573
0.660928
1.094749
-0.948667
0.369012
0.997443
0.827159
-0.737839
-1.127061
-1.131115
-0.932450
0.774451
1.070422
-0.316181
-1.098680
1.127184
0.896083
1.058259
1.046096
0.924464
-0.843253
0.940682
-0.786492
-0.932450
-0.360780
1.269088
-0.997320
1.009607
1.208272
0.871757
-0.802709
-1.496011
-1.110843
1.236653
1.058259
1.188000
1.208272
1.094749
1.260979
1.321795
-0.766220
-0.782437
-0.900015
-0.681077
-0.632424
-0.754056
-0.750002
-0.863525
-0.993266
-0.843253
-0.733784
-0.672968
-0.822981
-0.620261
-0.754056
-0.709458
-0.608098
-0.794600
-0.583772
-0.717567
-0.697295
-0.571608
-0.741893
-0.612152
-0.628370
-0.697295
1.054205
1.333958
1.451536
1.447481
1.390720
1.459645
1.394774
1.467753
1.451536
1.402883
-0.604044
-0.364834
-0.287801
-0.085081
-0.466194
1.216381
1.200163
-0.474303
-0.462140
-0.522956
-0.413487
-0.510792
-0.437813
-0.437813
-0.506738
-0.393215
-0.429705
-0.421596
-0.360780
-0.482412
-0.368889
-0.421596
-0.393215
-0.316181
-0.389161
-0.332399
-0.247257
-0.364834
-0.287801
-1.435195
1.629929
1.074477
1.678582
-0.312127
-0.243202
-0.413487
-0.202658
-0.186441
-1.082463
-0.239148
-0.356725
-0.186441
-0.344562
-0.271583
-0.206713
-0.344562
-0.178332
-0.279692
-0.287801
-0.206713
-0.328345
-0.214821
-0.263474
-0.275637
-0.170223
0.786615
1.861030
0.677146
1.524515
-0.105353
-0.247257
-0.316181
-0.113462
-0.385106
-0.170223
-0.243202
-0.291855
-0.093190
-0.328345
-0.186441
-0.194550
-0.324290
-0.162114
-0.308073
-0.218876
-0.198604
-0.344562
-0.137788
-0.275637
-0.259420
-0.166169
-0.364834
-0.190495
-0.275637
-0.320236
-0.186441
-0.352671
-0.222930
-0.275637
-0.336453
-0.218876
-0.328345
-0.283746
-0.267529
-0.340508
-0.243202
-0.360780
-0.279692
-0.251311
-0.364834
-0.251311
-0.328345
-0.324290
-0.324290
-0.381052
-0.312127
-0.340508
-0.381052
-0.291855
-0.360780
-0.356725
-0.348617
-0.389161
-0.328345
-0.389161
-0.360780
-0.360780
-0.425650
-0.356725
-0.405378
-0.421596
-0.981103
0.685255
-0.336453
-1.273019
-0.547282
-0.344562
-0.522956
-0.449977
-0.308073
-0.559445
-0.336453
-0.048591
-0.133734
-0.604044
1.366393
0.068986
-0.527010
1.333958
2.688127
1.370448
-0.433759
-0.527010
1.001498
1.638038
-0.648642
-1.147333
1.362339
-0.652696
1.321795
-0.952722
-0.620261
-1.143278
-0.595935
-0.677023
0.304141
1.354230
1.338013
1.362339
1.346121
1.350176
1.333958
1.313686
1.317741
1.281251
1.293414
1.269088
1.090694
-0.725676
0.664983
-0.405378
-0.591880
-0.875688
-0.733784
1.078531
1.256925
-0.729730
-0.972994
-0.729730
-1.483848
1.098803
1.317741
1.054205
1.175837
1.070422
0.766343
-0.737839
-0.972994
-0.936504
-0.778383
-1.074354
-2.262292
0.960954
1.763724
-0.535119
0.790669
0.997443
-0.908123
1.398829
-0.595935
-1.200040
-1.143278
-0.810818
-1.901451
0.210890
0.896083
0.709581
-1.556827
0.616330
1.001498
-0.997320
-1.098680
-0.717567
-1.641969
0.814995
-1.897396
-1.625752
-0.887851
-0.263474
0.770397
1.159619
-1.374379
-0.835144
0.766343
-0.782437
-0.912178
-1.370325
-1.050027
-1.082463
-1.345998
0.433882
-1.337890
-1.171659
-1.183822
-1.337890
0.446045
0.746071
0.835267
0.806887
0.705527
0.855539
0.717690
0.742016
0.681200
-1.017592
0.531188
0.717690
0.697418
0.721744
0.693364
0.693364
0.697418
0.705527
0.673092
0.656874
0.681200
1.698854
-1.183822
-2.748820
0.251434
0.770397
0.604167
-0.579717
0.685255
0.543351
0.746071
0.567677
0.616330
0.758234
0.519024
0.705527
0.587949
0.596058
0.693364
0.519024
0.677146
0.600112
0.559568
0.677146
0.502807
0.636602
0.620384
-1.451413
-1.293291
0.231162
0.644711
0.596058
0.539296
0.681200
-1.447358
-1.418978
0.101422
0.596058
0.624439
0.567677
0.632548
0.592004
0.559568
0.640656
0.551460
0.600112
0.596058
-2.185259
0.531188
0.600112
0.664983
0.498752
0.693364
0.563623
0.587949
0.673092
0.519024
0.681200
0.620384
0.385229
0.664983
0.583895
0.519024
0.644711
-0.900015
-1.808200
0.531188
-1.273019
0.612276
0.608221
0.843376
0.474426
-0.798655
-1.909560
0.474426
0.916355
0.519024
0.725799
0.843376
0.523079
-1.013538
0.656874
0.474426
0.600112
0.810941
1.013661
0.259543
-1.118952
-1.041919
-1.487902
0.790669
0.977171
-1.297346
0.636602
-0.859471
-0.595935
0.474426
-0.814872
-1.094626
-1.341944
-1.852798
-1.220312
-1.159496
-0.283746
-0.599989
0.596058
-1.110843
-1.179768
-1.013538
-1.228421
0.940682
2.412428
-1.078408
-1.086517
-1.127061
0.985280
-1.033810
-1.058136
-0.968939
-0.948667
0.810941
-0.952722
0.385229
0.956899
-0.855416
-1.171659
1.046096
1.102858
1.212326
1.179891
0.000062
0.989335
-0.778383
-1.094626
-0.912178
-0.895960
-1.054082
1.167728
1.058259
1.102858
1.119075
2.489462
1.244762
-0.920287
-0.964885
-0.798655
0.587949
1.220435
1.171782
1.058259
-0.725676
0.547405
1.179891
1.305578
-0.413487
-0.636479
-0.644588
-0.794600
-1.118952
1.021770
1.431264
1.204218
1.139347
1.431264
1.033933
-0.595935
-0.766220
0.296033
-0.454031
-0.916232
-0.644588
-0.559445
-0.904069
-1.520337
1.110966
1.370448
1.544787
1.021770
1.658310
1.220435
-0.660805
-0.429705
-0.867579
-0.368889
2.055641
-0.563500
-0.409433
-0.875688
-0.295909
-0.677023
-0.640533
-0.352671
-0.806764
-0.332399
-0.543228
-0.620261
-0.255365
-0.717567
-0.376997
-0.462140
-0.672968
-0.255365
0.944736
1.638038
1.678582
-0.620261
-0.251311
-0.587826
-0.385106
-0.364834
-0.591880
0.068986
1.488025
1.625875
1.415046
0.977171
-0.425650
-0.368889
-0.413487
-0.170223
-0.559445
-0.210767
-0.372943
-0.441868
-0.145897
-0.518901
-0.255365
-0.729730
-0.462140
-0.149951
-0.437813
-0.279692
-0.226985
-0.462140
-0.186441
-0.368889
-0.320236
-0.178332
-0.421596
-0.174278
-0.304018
-0.316181
-0.149951
-0.368889
-0.214821
-0.263474
-0.336453
-0.149951
-0.336453
-0.226985
-0.202658
-0.328345
-0.154006
-0.320236
-0.247257
-0.206713
-0.332399
-0.186441
-0.295909
-0.263474
-0.162114
-0.308073
-0.198604
-0.263474
-0.275637
-0.214821
-0.328345
-0.218876
-0.239148
-0.299964
-0.202658
-0.304018
-0.247257
-0.214821
-0.308073
-0.218876
-0.312127
-0.275637
-0.235093
-0.368889
-0.255365
-0.332399
-0.332399
-0.291855
-0.360780
-0.308073
-0.344562
-0.352671
-0.291855
-0.170223
-0.308073
-0.344562
-0.409433
-0.299964
-0.401324
-0.368889
-0.372943
-0.782437
-0.429705
-1.455467
-0.454031
-0.052646
-0.449977
-0.486466
-0.454031
-0.486466
-0.474303
-0.421596
-0.535119
-0.474303
-0.502684
-0.494575
-0.129679
1.479917
1.192054
-0.502684
-0.482412
-0.502684
1.163674
1.463699
1.532624
1.358285
1.358285
1.415046
2.570550
1.354230
1.204218
1.443427
1.471808
-0.685132
-0.555391
-0.725676
-0.547282
-0.660805
-0.677023
-0.360780
-0.729730
2.570550
1.455590
1.256925
0.973117
-0.595935
-0.827035
-0.620261
-0.733784
-0.790546
-0.595935
-0.814872
-0.672968
-0.729730
-0.810818
-0.486466
-0.871634
1.232598
1.212326
1.175837
-0.668914
0.993389
-1.297346
-0.235093
-0.908123
-0.668914
-0.867579
1.374502
1.248816
1.025824
-0.717567
-1.329781
0.677146
1.374502
0.806887
0.843376
1.009607
1.025824
1.309632
1.115021
-0.843253
-0.774328
-0.887851
2.590821
1.159619
1.050150
1.763724
1.929955
0.863648
-0.924341
1.054205
1.204218
1.139347
2.185382
-0.725676
-0.972994
-0.875688
-0.798655
-1.074354
-0.790546
-0.981103
1.042042
1.042042
0.523079
1.159619
-0.393215
0.944736
1.394774
-0.900015
-0.887851
-1.293291
-1.013538
-0.835144
-0.863525
-1.029755
-0.774328
-1.009483
-0.928395
-0.839199
-1.041919
-0.851362
-0.977048
-0.948667
1.139347
1.009607
1.175837
-0.202658
-0.916232
-2.225803
-1.001375
-0.867579
-0.932450
0.944736
1.573168
0.989335
1.686691
0.770397
0.689309
0.778506
-1.037864
-0.774328
-0.786492
-1.074354
-0.993266
-0.932450
-1.143278
-0.928395
-1.033810
-1.045973
-0.895960
-1.118952
-0.968939
-1.021647
-1.082463
-0.932450
-1.110843
-1.690622
0.032497
0.389284
-0.567554
-1.179768
0.940682
1.029879
0.527133
0.977171
0.900138
-0.364834
-0.818927
-1.191931
0.401447
-1.127061
-0.154006
0.883920
0.871757
0.806887
0.871757
0.814995
0.843376
0.835267
0.733907
0.859594
0.814995
0.827159
-0.332399
-1.252747
-1.613589
-0.693240
0.750125
0.851485
0.746071
0.742016
0.819050
0.737962
0.806887
0.733907
0.725799
0.798778
2.359721
0.851485
2.197545
0.737962
-0.482412
0.531188
0.827159
-0.668914
-1.418978
-1.082463
-1.406814
-0.806764
0.932573
0.575786
-1.232475
0.441991
0.693364
-1.195986
-1.463576
-1.139224
0.012225
0.146020
0.851485
0.462263
0.571732
0.608221
0.616330
0.879866
-1.443304
0.762288
0.523079
0.604167
0.782560
-0.972994
0.583895
0.717690
0.636602
0.685255
0.709581
0.656874
0.729853
0.648765
0.190618
0.729853
0.669037
0.758234
0.673092
0.608221
-1.285182
0.620384
-1.204094
-1.317618
0.587949
-1.086517
-0.129679
0.952845
0.766343
-1.475739
-0.948667
0.604167
0.778506
-1.102735
0.482535
0.932573
-0.968939
0.575786
1.005552
0.608221
0.827159
0.887975
0.575786
0.977171
0.697418
1.877248
-1.175714
0.563623
-1.001375
0.823104
0.636602
1.216381
1.277197
0.794723
0.944736
-0.421596
1.232598
0.709581
-0.960831
-1.033810
-1.293291
-0.770274
-0.085081
-0.628370
-0.916232
-1.309509
-0.733784
-1.674405
-1.037864
0.685255
-0.052646
-0.425650
-1.078408
-0.912178
0.600112
-1.118952
-0.790546
-0.997320
1.017715
-0.409433
-0.575663
0.798778
1.066368
0.600112
1.147456
1.050150
1.179891
1.273142
1.046096
1.317741
1.183946
1.188000
1.329904
1.297469
-0.535119
-0.798655
-0.855416
-1.929832
-0.956776
-1.033810
-0.417541
-0.871634
-0.454031
-0.741893
-0.640533
-0.616207
-0.855416
-0.478357
-0.786492
-0.620261
-0.539173
-0.810818
-0.466194
-0.689186
0.709581
1.528569
-0.677023
-0.506738
-0.624316
-0.624316
-0.478357
-0.636479
-0.466194
0.000062
1.244762
1.009607
1.301523
0.251434
-0.178332
-0.409433
-0.076972
-0.360780
-0.555391
0.948791
1.415046
1.281251
1.540733
0.283869
-0.409433
-0.535119
-0.389161
-0.340508
-0.543228
-0.401324
-0.636479
-0.239148
-0.928395
-0.202658
-0.036428
-0.243202
-0.283746
-0.458085
-0.591880
-0.433759
-0.555391
-0.527010
-0.458085
-0.466194
-0.433759
-0.543228
-0.531064
-0.466194
-0.612152
-0.308073
1.082586
1.431264
1.804268
-0.231039
-0.527010
-0.599989
-0.624316
-0.567554
-0.628370
-0.567554
-0.620261
-0.628370
-0.587826
-0.672968
-0.604044
-0.624316
-0.681077
-0.612152
-0.685132
-1.106789
-0.344562
-1.017592
-0.660805
-0.745948
-0.672968
-0.766220
-0.754056
-0.693240
-0.782437
-0.693240
-0.762165
-0.810818
-0.758111
-0.827035
-1.305454
-0.713512
-0.822981
-0.810818
-0.883797
-0.806764
-0.883797
-0.920287
-0.883797
-0.964885
-0.916232
-0.952722
-0.956776
-0.924341
0.920410
-0.531064
0.936627
-1.045973
1.021770
0.506861
1.054205
0.827159
-0.770274
0.908247
-0.567554
0.944736
-0.409433
0.904192
2.789487
0.892029
0.827159
0.709581
0.928519
0.701472
0.806887
0.806887
0.648765
0.827159
0.693364
0.697418
0.742016
0.608221
0.778506
2.331340
0.709581
0.729853
0.535242
0.774451
0.559568
0.616330
1.702908
-1.418978
-1.329781
-1.431141
0.587949
1.840758
0.616330
0.624439
0.563623
0.587949
0.567677
0.571732
0.600112
0.563623
0.600112
0.559568
1.512352
0.644711
0.523079
0.587949
0.632548
0.478480
0.616330
0.510916
0.571732
0.640656
0.539296
0.640656
0.474426
0.559568
0.628493
0.563623
0.632548
0.612276
0.551460
0.583895
-0.494575
0.592004
0.806887
0.932573
-1.962267
0.575786
0.587949
0.717690
0.519024
0.514970
0.608221
0.628493
0.746071
0.571732
0.746071
0.664983
0.620384
0.810941
-0.097244
-2.355543
0.636602
0.713636
0.863648
0.178455
0.883920
0.733907
0.802832
0.879866
-2.809636
0.746071
0.879866
-1.143278
-1.244638
-0.912178
-0.344562
2.055641
-0.040482
0.531188
0.887975
-0.486466
-0.571608
1.025824
0.519024
0.863648
1.054205
0.875811
0.989335
-0.555391
-1.127061
-0.936504
-1.954158
-0.506738
-0.883797
0.304141
-1.037864
-0.863525
0.178455
-0.506738
-0.867579
-0.952722
-0.814872
-2.217694
-0.782437
-0.895960
-0.936504
-0.774328
-1.017592
-0.851362
-0.891906
-0.928395
-0.770274
-0.968939
-0.810818
-0.851362
-0.964885
-0.770274
-0.936504
-0.847307
-0.802709
-0.956776
-0.782437
-0.920287
-0.871634
-0.839199
-0.916232
-0.798655
-0.883797
-0.912178
-0.831090
-0.956776
-0.827035
-0.883797
-0.908123
-0.806764
-0.863525
-0.778383
-0.186441
-0.932450
-0.741893
-1.747384
1.046096
1.978607
0.583895
-0.956776
1.029879
1.110966
1.050150
1.001498
1.102858
0.993389
1.042042
1.021770
0.993389
1.029879
0.778506
-1.378434
-1.054082
-1.074354
-1.524392
-0.729730
-0.997320
-1.070299
-1.155442
-1.017592
-1.175714
-1.086517
-0.936504
0.510916
0.981226
0.810941
-1.139224
-1.556827
-1.139224
0.920410
-1.179768
0.713636
0.904192
0.750125
-1.994702
0.774451
0.697418
0.879866
0.612276
0.798778
0.746071
0.620384
0.806887
0.612276
0.721744
0.758234
0.571732
0.814995
0.636602
0.673092
0.697418
0.579840
0.729853
0.600112
0.632548
0.705527
0.559568
-1.362216
0.510916
0.235217
0.685255
0.397393
0.677146
0.498752
0.506861
0.677146
-2.310945
0.506861
0.543351
0.514970
0.502807
0.527133
0.498752
1.167728
-0.912178
0.450100
-2.002811
0.429828
0.470372
0.652820
0.352794
0.559568
0.474426
0.421719
0.604167
0.369012
0.543351
0.502807
0.409556
0.612276
0.397393
0.502807
0.551460
0.377121
0.575786
0.446045
0.506861
0.579840
0.397393
0.592004
0.527133
0.498752
0.656874
0.474426
0.612276
0.555514
0.543351
0.636602
0.506861
0.616330
0.612276
0.523079
0.669037
0.575786
0.608221
0.669037
0.571732
0.693364
0.664983
0.669037
2.181327
-1.321672
-1.341944
0.433882
0.814995
0.689309
-0.129679
0.806887
-1.289237
-1.200040
-2.140660
0.782560
0.855539
-1.062191
-1.244638
-1.187877
-1.171659
-1.175714
-1.118952
-1.045973
0.867703
0.948791
-1.058136
-1.123006
-1.147333
0.932573
-2.627188
0.892029
-1.021647
1.066368
0.810941
1.196109
0.924464
1.074477
1.151510
1.354230
0.263597
1.536678
-0.733784
-0.745948
-1.601425
0.823104
-1.151387
-0.612152
-1.094626
-0.774328
-1.471685
-0.677023
1.029879
1.394774
1.074477
1.293414
1.354230
1.066368
1.439373
-0.218876
1.228544
1.443427
1.212326
-0.599989
-0.689186
-0.806764
-0.531064
-0.798655
-0.604044
-0.624316
-0.745948
-0.482412
-0.693240
-0.583772
-0.539173
-0.705404
-0.470249
-0.640533
-0.587826
-0.518901
-0.672968
-0.454031
-0.563500
-0.579717
-0.421596
-0.608098
-0.458085
-0.486466
-0.571608
-0.413487
-0.587826
-0.462140
-0.445922
-0.547282
-0.376997
-0.527010
-0.482412
-0.425650
-0.551336
-0.429705
-0.486466
-0.478357
-0.413487
-1.062191
-0.449977
-0.474303
-0.482412
-0.458085
-0.494575
-0.449977
-0.449977
-0.486466
-0.498629
1.240707
1.309632
1.192054
0.482535
-0.202658
-0.518901
-0.466194
-0.425650
-0.527010
-0.425650
-0.531064
-0.522956
-0.454031
-0.575663
-0.449977
-0.482412
-0.527010
-0.454031
-0.551336
-0.486466
-0.502684
-0.555391
-0.502684
-0.583772
-0.547282
-0.543228
-0.599989
-0.518901
-0.575663
-0.579717
-0.535119
-0.599989
-0.539173
-0.616207
-0.470249
-0.328345
1.062314
1.455590
1.394774
2.635420
-0.478357
-0.729730
-0.713512
1.419101
-0.522956
1.228544
1.171782
-0.652696
1.285306
1.277197
-0.304018
0.997443
1.427209
1.317741
-0.835144
0.956899
-0.352671
-0.656751
1.204218
1.216381
-1.690622
0.981226
1.358285
-0.644588
-1.005429
-0.591880
0.571732
1.224490
0.742016
1.200163
1.123130
-0.895960
0.369012
-0.182386
-1.098680
1.183946
-0.510792
-1.114898
-2.233911
-1.041919
-0.985157
-0.774328
-1.159496
-0.745948
1.009607
0.993389
1.252870
0.827159
1.236653
-0.981103
0.859594
-1.074354
1.706963
-0.887851
-1.994702
-1.759547
0.952845
-1.187877
-1.106789
0.855539
0.742016
-0.786492
-1.151387
0.823104
1.200163
1.913737
1.143402
0.956899
-1.244638
-0.839199
0.616330
-0.900015
-1.094626
-1.248693
1.192054
0.636602
0.571732
0.944736
-1.005429
1.102858
0.681200
0.754179
0.936627
0.717690
-0.543228
-0.814872
-1.723057
0.904192
0.664983
-0.218876
0.624439
0.912301
0.977171
0.571732
1.082586
0.677146
0.810941
1.017715
0.575786
0.989335
0.616330
-0.851362
0.360903
0.604167
-1.021647
-0.940559
0.616330
-0.952722
-1.451413
-1.090571
-1.171659
-1.443304
-0.956776
-1.406814
-1.175714
-1.090571
0.004116
-0.259420
0.604167
0.681200
0.778506
0.077095
-0.725676
0.304141
0.450100
0.973117
0.458208
0.904192
0.729853
0.592004
1.013661
0.527133
0.831213
0.774451
0.551460
0.944736
0.555514
0.750125
0.827159
0.527133
0.920410
0.510916
0.697418
0.713636
-0.198604
-1.127061
-1.345998
-1.390597
-1.118952
-1.487902
-1.179768
-1.325726
-1.228421
0.810941
-1.333835
-1.236530
0.308196
0.664983
0.790669
-1.321672
-0.843253
0.648765
0.742016
0.742016
0.648765
0.535242
0.652820
-0.125625
0.713636
-1.293291
-1.268965
0.575786
0.790669
0.652820
0.632548
0.766343
0.393338
-1.252747
-1.350053
-1.402760
-1.212203
-1.439249
-0.895960
-1.281128
0.028442
0.831213
-1.350053
0.182509
-1.175714
0.567677
-1.228421
-0.198604
0.543351
0.875811
0.539296
0.697418
0.782560
-0.798655
0.158183
0.482535
0.669037
0.762288
0.539296
1.840758
0.669037
-0.178332
-2.785309
0.446045
0.721744
0.721744
0.478480
0.863648
0.527133
0.677146
0.758234
0.474426
0.798778
0.543351
0.624439
0.940682
0.458208
0.770397
0.632548
0.579840
-1.183822
0.255489
0.750125
0.697418
0.482535
-0.401324
0.300087
-1.268965
-1.232475
-0.052646
0.944736
0.551460
0.640656
0.867703
0.429828
0.685255
-1.041919
-1.439249
-1.131115
-1.491957
-1.195986
-1.281128
-1.435195
-1.114898
-1.443304
0.519024
-1.386542
0.514970
-1.058136
1.779942
0.669037
0.956899
0.450100
0.969063
0.681200
0.600112
0.981226
-1.439249
0.802832
0.810941
0.612276
0.916355
1.406937
-1.410869
0.742016
0.624439
0.948791
0.596058
0.871757
0.831213
0.620384
0.969063
0.636602
0.831213
0.843376
-1.305454
-1.268965
-1.268965
0.113585
-0.636479
-2.132551
-1.054082
-1.143278
-1.208149
-1.508174
-1.204094
0.255489
-1.066245
-1.204094
-1.086517
-1.110843
-0.056700
0.981226
0.892029
0.920410
0.960954
0.896083
0.989335
0.397393
1.277197
0.944736
0.920410
0.989335
-0.579717
0.867703
1.046096
1.005552
0.944736
1.115021
0.932573
1.054205
-1.118952
-0.608098
1.127184
1.082586
1.021770
0.774451
1.001498
1.147456
-0.235093
-0.993266
-0.810818
-2.237966
-0.932450
-0.782437
-0.883797
-0.818927
-0.782437
-0.859471
-0.741893
-0.827035
-0.839199
-0.713512
-0.831090
-0.737839
-0.778383
-1.366270
-0.705404
-0.705404
1.285306
1.200163
1.289360
1.309632
1.309632
1.289360
1.325850
1.325850
1.321795
-0.612152
-0.689186
-0.636479
-0.604044
1.289360
1.463699
-0.571608
-0.681077
-0.510792
1.179891
-0.267529
1.382611
0.973117
-0.729730
-1.167605
-0.409433
-0.437813
-0.668914
-0.356725
-1.950104
1.415046
1.625875
1.378557
1.386665
1.333958
2.120511
-0.981103
-0.567554
-0.478357
-0.235093
-0.612152
-0.231039
-0.437813
-0.486466
-0.190495
-0.575663
-0.279692
-0.348617
-0.470249
-0.186441
-0.494575
-0.316181
-0.539173
-0.462140
-0.154006
-0.397269
-0.324290
-0.198604
-0.429705
-0.145897
-1.086517
-0.364834
-0.129679
-0.368889
-0.214821
-0.214821
-0.312127
-1.487902
-0.198604
-0.145897
-0.113462
-0.360780
-0.032374
-0.299964
-0.206713
-0.117516
-0.356725
-0.072918
-0.239148
-0.222930
-0.056700
-0.214821
-0.060754
-0.141842
-0.235093
-0.036428
-0.263474
-0.113462
-0.145897
-0.251311
-0.048591
-0.239148
-0.154006
-0.109407
-0.247257
-0.060754
-0.194550
-0.154006
0.587949
-0.198604
-0.060754
-0.182386
-0.145897
-0.097244
-0.174278
1.309632
0.433882
-0.174278
-0.174278
1.678582
-0.113462
-0.154006
-0.198604
-0.076972
-0.222930
-0.137788
-0.121570
-0.210767
-0.072918
-0.218876
-0.145897
-0.109407
-0.178332
-0.076972
-0.190495
-0.166169
-0.121570
-0.218876
-0.129679
-0.190495
-0.186441
-0.129679
-0.239148
-0.149951
-0.178332
-0.226985
-0.121570
-0.218876
-0.186441
-0.174278
-0.243202
-0.145897
-0.222930
-0.206713
-0.170223
-0.235093
-0.190495
-0.247257
-0.222930
-0.202658
-0.283746
-0.231039
-0.239148
-0.275637
-0.198604
-0.299964
-0.263474
-0.291855
1.561005
-0.109407
0.681200
-0.308073
-0.831090
-0.478357
1.467753
2.428646
-0.304018
-0.316181
-0.474303
-0.231039
-0.458085
-0.405378
-0.328345
-0.522956
-0.312127
-0.454031
-0.470249
-0.356725
-0.527010
-0.822981
1.508297
1.260979
-0.332399
-0.527010
-0.368889
-0.510792
-0.579717
-0.364834
-0.539173
-1.929832
1.443427
2.542169
-0.251311
1.167728
1.540733
1.552896
2.169164
-0.194550
-0.827035
-0.604044
-0.275637
-1.135170
-0.020210
-0.454031
0.648765
-0.299964
-0.916232
-0.462140
-0.608098
-0.843253
-0.117516
-0.770274
-0.575663
-0.571608
-0.891906
-0.445922
-0.851362
-0.681077
-0.579717
-0.871634
-0.543228
-0.822981
-0.762165
-0.595935
-1.301400
-0.271583
1.208272
1.167728
1.597494
-0.989211
1.224490
1.196109
-0.822981
1.179891
1.151510
1.216381
1.082586
-0.802709
-0.932450
-0.486466
-0.818927
-0.839199
1.106912
0.287924
0.636602
1.715072
1.062314
0.989335
0.819050
-0.887851
0.969063
1.451536
-0.940559
-1.066245
0.413610
1.013661
0.969063
0.989335
0.965008
0.965008
0.969063
0.952845
0.969063
-1.013538
-2.156878
0.859594
0.985280
-0.316181
0.835267
0.993389
-1.094626
1.070422
-0.956776
-1.187877
-1.151387
1.447481
1.147456
0.993389
0.141965
-0.344562
-1.341944
0.677146
-0.498629
-1.183822
-1.402760
-0.263474
0.636602
-1.041919
0.786615
-1.264910
-1.333835
0.263597
0.965008
0.778506
0.632548
-0.924341
0.474426
0.089258
0.839322
0.506861
1.131238
0.539296
-1.990648
-1.127061
0.437936
-0.940559
0.462263
-1.200040
-1.029755
0.271706
1.086640
-1.431141
0.571732
-0.547282
0.300087
-1.946049
-1.317618
-1.633861
1.131238
0.291978
0.892029
0.790669
0.373066
1.094749
0.405501
0.774451
0.871757
0.324413
1.037987
-1.500065
0.559568
0.896083
0.381175
0.839322
-1.123006
-1.540609
-1.090571
-1.552773
-1.297346
0.154129
0.458208
0.863648
1.581277
-1.536555
0.660928
0.462263
0.924464
0.166292
0.742016
0.713636
0.417665
0.875811
0.498752
0.608221
0.758234
0.429828
0.725799
-1.402760
-1.459521
-1.256802
-1.528446
0.551460
0.705527
0.519024
0.620384
0.579840
0.624439
0.697418
0.535242
0.746071
0.612276
0.490644
0.717690
0.583895
0.721744
0.628493
-1.366270
-1.293291
-1.463576
-2.010920
0.543351
0.677146
0.782560
0.519024
0.806887
0.616330
0.644711
0.758234
0.336577
0.300087
0.620384
-1.333835
0.287924
-1.066245
0.774451
0.620384
-1.273019
-1.337890
-1.398706
0.754179
0.263597
0.762288
-1.277074
-1.370325
0.677146
0.750125
-1.167605
0.279815
0.717690
0.729853
0.636602
0.786615
0.425773
0.340631
0.255489
0.592004
1.325850
-1.212203
-1.366270
-1.252747
-1.268965
0.133857
1.183946
-1.244638
0.214945
0.458208
-0.405378
0.664983
0.855539
0.713636
0.758234
0.839322
0.689309
0.871757
0.742016
0.746071
0.863648
0.713636
0.831213
0.810941
0.746071
0.867703
0.762288
0.831213
0.839322
-0.843253
-1.143278
-1.216258
-1.131115
-1.159496
-1.187877
-1.098680
-1.171659
-1.086517
-1.131115
-1.163550
-1.106789
-1.155442
-1.123006
-1.102735
-1.163550
0.863648
1.127184
0.105476
-1.106789
-1.118952
-0.016156
0.494698
0.879866
-0.604044
-2.606916
-1.175714
-1.066245
-1.175714
0.814995
1.589385
0.875811
-1.869016
0.883920
-1.094626
-1.025701
-1.220312
0.514970
-1.082463
1.816432
-0.064809
0.859594
0.912301
1.017715
0.737962
-0.900015
-0.827035
0.827159
1.179891
0.737962
1.196109
0.693364
0.774451
2.225926
-0.855416
-1.045973
0.510916
0.875811
1.054205
1.415046
-0.972994
0.563623
-1.058136
-0.685132
1.670473
2.246198
-0.956776
-1.147333
-0.835144
-1.118952
-0.964885
-0.883797
0.851485
1.171782
-0.944613
0.883920
2.242143
0.960954
1.078531
1.163674
-1.017592
-0.855416
-0.956776
0.592004
1.094749
1.350176
0.936627
1.110966
2.680018
-0.308073
-0.981103
-1.812254
-0.786492
-1.009483
-0.709458
-0.944613
-0.859471
-0.741893
-0.952722
-0.705404
-0.875688
-0.855416
-0.697295
-0.948667
1.459645
-0.737839
-0.891906
1.240707
-0.158060
1.135293
1.252870
1.216381
1.131238
1.297469
1.135293
1.269088
1.244762
1.159619
1.317741
1.163674
1.256925
1.285306
1.208272
1.325850
1.240707
1.244762
-0.632424
-0.806764
-0.498629
-0.705404
-0.802709
-0.616207
-0.774328
-0.725676
-0.652696
-0.782437
-0.660805
-0.709458
-0.705404
-0.612152
-0.766220
-0.632424
-0.656751
-0.709458
-0.616207
-0.745948
-0.652696
-0.668914
-0.713512
-0.628370
-0.741893
-0.656751
-0.632424
-0.713512
-0.612152
-0.689186
-0.689186
-0.612152
-0.713512
-0.624316
-0.648642
-0.681077
-0.644588
-0.693240
-0.677023
-0.693240
-0.685132
-0.672968
-0.745948
-0.677023
-0.709458
-0.754056
-0.705404
-0.737839
-0.717567
-0.693240
-0.754056
-0.725676
-0.762165
-0.762165
-0.733784
-0.810818
-0.750002
-0.778383
-0.798655
-0.758111
-0.863525
-0.818927
-0.822981
-1.966321
0.040606
-0.831090
1.147456
1.106912
1.090694
1.033933
1.532624
1.139347
1.013661
1.183946
1.021770
0.441991
-2.529882
0.847431
1.147456
1.058259
0.924464
1.196109
0.859594
1.050150
1.054205
0.758234
1.143402
-1.090571
-2.716385
0.887975
0.896083
-0.360780
0.770397
0.977171
0.952845
0.758234
-2.306891
-1.418978
-1.447358
-1.435195
-2.164987
-1.127061
0.677146
0.794723
2.104294
0.575786
-0.510792
1.682636
0.790669
0.551460
0.417665
1.009607
0.628493
0.636602
0.936627
-2.801527
-1.633861
0.600112
0.640656
0.847431
0.486589
0.819050
0.020334
-1.427086
0.729853
0.502807
0.721744
0.587949
0.579840
0.721744
0.490644
0.660928
0.575786
-1.459521
0.620384
0.486589
-1.305454
0.433882
0.571732
0.519024
0.381175
0.697418
0.454154
0.502807
0.685255
0.385229
0.660928
0.486589
0.470372
0.604167
-1.577099
0.543351
0.583895
0.502807
-1.398706
-0.076972
0.498752
0.612276
0.409556
-1.354107
-2.424468
0.397393
0.705527
0.433882
0.555514
0.669037
0.437936
0.721744
0.494698
0.559568
0.656874
0.478480
0.701472
0.559568
0.466317
-1.260856
0.429828
0.697418
-1.293291
-1.471685
0.766343
-1.402760
0.194673
-1.139224
0.328468
0.705527
0.742016
0.506861
0.802832
0.571732
0.664983
0.802832
0.514970
0.827159
0.652820
1.098803
-1.341944
0.527133
0.823104
0.794723
0.543351
0.948791
0.596058
0.762288
0.859594
0.579840
0.948791
0.697418
0.956899
0.750125
0.587949
0.952845
-1.155442
0.632548
-0.948667
0.701472
0.859594
1.033933
0.640656
1.342067
-0.887851
-1.195986
-0.924341
-1.273019
-0.977048
-1.070299
-1.191931
-0.904069
-1.224366
-0.989211
-1.710894
0.373066
1.171782
0.932573
-0.993266
-0.859471
-1.151387
-0.827035
0.924464
1.025824
1.074477
0.871757
1.224490
1.459645
-0.968939
-0.802709
-1.110843
-0.754056
-0.956776
-0.972994
-0.717567
-1.066245
-0.778383
-0.900015
-0.972994
-0.733784
-1.017592
-0.790546
-0.847307
-0.977048
-0.705404
-0.968939
-0.855416
-0.810818
-0.940559
-0.421596
-0.871634
-0.855416
-0.758111
-0.928395
-0.741893
1.143402
2.201599
-0.624316
-2.282564
-0.802709
-0.766220
-0.766220
1.256925
1.192054
1.228544
-0.701349
-0.875688
-0.741893
-0.786492
-0.887851
-0.713512
-0.859471
-0.810818
-0.644588
-2.169041
2.862466
-0.575663
1.204218
1.110966
1.309632
1.094749
1.362339
1.244762
1.155565
-0.591880
-2.250129
-0.774328
1.293414
1.155565
-0.514847
1.094749
1.285306
-0.218876
-0.952722
0.940682
1.204218
1.236653
1.431264
1.143402
1.427209
2.161055
-0.729730
1.354230
-0.770274
-0.612152
-0.831090
-0.685132
-0.681077
1.147456
1.463699
-1.337890
-0.770274
-2.274455
1.135293
1.374502
1.467753
-0.827035
-0.502684
-0.835144
-0.640533
1.366393
-0.770274
1.459645
1.163674
1.333958
1.350176
1.350176
1.808323
0.823104
1.435318
1.569113
-0.620261
-0.591880
-0.729730
1.435318
1.419101
-0.522956
-1.228421
-0.636479
1.252870
1.419101
-0.352671
-0.624316
0.369012
0.997443
-0.591880
-0.535119
-0.032374
-0.531064
-0.531064
-0.506738
-0.174278
-0.531064
-0.539173
-0.478357
-0.514847
-0.470249
-0.502684
-0.518901
-0.486466
-0.498629
-0.490521
-0.510792
-0.441868
1.504243
2.347558
-0.364834
-0.543228
-0.466194
-0.409433
-0.539173
-0.385106
-0.490521
-0.490521
-0.405378
-0.514847
-0.397269
-0.466194
-0.482412
-0.405378
-0.547282
-0.413487
-0.437813
-0.470249
-0.397269
-0.518901
-0.417541
-0.397269
-0.482412
-0.385106
-0.478357
-0.437813
-0.413487
-0.506738
-0.437813
-0.518901
-0.486466
-0.425650
-0.522956
-0.437813
-0.470249
-0.494575
-0.433759
-0.510792
-0.466194
-0.470249
-0.531064
-0.486466
-0.559445
-0.543228
-0.531064
-0.575663
-0.547282
-0.551336
-0.571608
-0.527010
-0.583772
-0.567554
-0.591880
-0.599989
-0.591880
-0.656751
-0.616207
-0.644588
-0.660805
-0.640533
-0.668914
-0.652696
-0.668914
-0.701349
-0.681077
-0.705404
-0.729730
-0.725676
-0.762165
-0.729730
-0.758111
-0.356725
-0.563500
-0.344562
-0.320236
1.183946
1.106912
-1.110843
-0.956776
1.127184
1.188000
1.082586
1.167728
1.098803
2.416482
1.171782
0.993389
1.070422
1.102858
0.924464
1.135293
0.989335
0.965008
1.066368
0.920410
1.025824
0.960954
1.001498
1.042042
-1.475739
-1.135170
-1.690622
-1.171659
-2.404196
0.806887
0.863648
0.640656
0.737962
0.717690
0.774451
0.794723
-1.147333
-2.051463
0.814995
0.652820
0.656874
0.863648
0.713636
0.697418
-2.294727
0.519024
0.802832
0.823104
0.429828
0.912301
0.539296
0.705527
0.441991
0.466317
0.827159
0.592004
0.644711
0.814995
0.494698
0.770397
0.620384
0.527133
0.790669
0.474426
0.721744
0.628493
0.498752
0.766343
0.527133
0.664983
0.664983
-3.227239
0.604167
0.583895
-1.289237
-1.516283
-1.358162
-0.012102
0.506861
0.750125
0.510916
-1.139224
-1.366270
0.316305
0.802832
0.571732
0.417665
-1.260856
-1.577099
0.721744
0.624439
0.531188
0.762288
-1.439249
0.616330
0.677146
0.592004
0.640656
0.685255
0.632548
0.733907
0.644711
0.664983
0.705527
0.640656
0.717690
-1.289237
-1.382488
-2.623134
-1.345998
0.664983
0.701472
-1.350053
-1.281128
-1.260856
-1.277074
0.733907
0.762288
0.766343
2.728671
-1.102735
0.689309
0.746071
0.936627
0.592004
0.924464
0.474426
0.733907
0.948791
0.677146
-1.054082
0.790669
0.762288
1.046096
0.677146
1.005552
0.875811
0.750125
1.070422
0.725799
0.936627
0.989335
-1.017592
-0.940559
0.766343
-0.989211
0.896083
0.843376
1.179891
0.766343
2.055641
-0.867579
-0.304018
-0.831090
-1.106789
-1.062191
-0.810818
-1.212203
-0.851362
-1.017592
-1.102735
-0.766220
-1.159496
-0.879743
-0.908123
-1.078408
-0.786492
-1.082463
-0.948667
0.575786
1.054205
-0.729730
-1.045973
-0.968939
-0.790546
-1.098680
-0.729730
-0.972994
-0.968939
-0.774328
-1.045973
-0.774328
-0.908123
-1.001375
-0.770274
0.555514
1.220435
1.192054
0.997443
1.305578
0.993389
1.131238
1.208272
0.997443
1.289360
0.956899
0.940682
0.912301
0.640656
0.044660
-0.810818
-0.879743
-0.745948
-0.908123
0.555514
-0.798655
-0.977048
-1.905505
-0.916232
-0.900015
-0.750002
-1.005429
-1.045973
-0.904069
-0.900015
-0.713512
1.009607
1.321795
-0.782437
-1.009483
-0.721621
-0.956776
-0.827035
-0.754056
-0.972994
-0.681077
-0.879743
-0.863525
-0.531064
-0.972994
-0.758111
-0.859471
-0.827035
1.256925
1.106912
1.256925
1.609657
-0.778383
-0.352671
0.125748
-2.087953
-0.985157
1.163674
1.342067
1.021770
1.346121
1.147456
1.131238
1.175837
0.729853
-0.214821
1.074477
1.131238
1.350176
1.037987
1.285306
1.212326
1.074477
1.350176
1.082586
1.240707
-0.940559
1.958335
1.402883
-0.790546
1.029879
1.443427
1.021770
1.252870
0.782560
1.017715
1.431264
-0.847307
-0.835144
-0.608098
-0.936504
-0.672968
-0.745948
-0.863525
-0.616207
-0.741893
-0.672968
-0.681077
-0.612152
1.455590
-0.725676
1.265034
1.382611
-0.243202
-0.693240
2.096185
-0.604044
-0.668914
-0.599989
1.427209
-0.672968
-1.398706
2.959772
-0.482412
1.143402
-0.754056
1.561005
-2.189313
-0.502684
-0.231039
1.175837
-1.297346
0.263597
-0.482412
-0.535119
-1.021647
-0.401324
1.917792
-0.340508
-0.498629
-0.725676
-0.518901
1.244762
1.593440
0.170346
0.441991
1.216381
1.350176
-0.518901
-0.312127
-0.770274
-0.247257
-0.595935
-0.543228
-0.243202
-0.729730
-0.267529
-0.506738
-0.579717
-0.198604
-0.417541
-0.332399
-0.433759
-0.599989
-0.214821
-0.604044
-0.381052
-0.352671
-0.624316
-0.283746
-0.535119
-0.437813
-0.304018
-0.608098
-0.279692
-0.494575
-0.510792
-0.304018
-0.587826
-0.312127
-0.437813
-0.547282
-0.299964
-0.555391
-0.364834
-0.417541
-0.563500
-0.344562
-0.543228
-0.466194
-0.393215
-0.571608
-0.336453
-0.502684
-0.445922
-0.385106
-0.527010
-0.401324
-0.498629
-0.527010
-0.425650
-0.583772
-0.466194
-0.502684
-0.575663
-0.425650
-0.567554
-0.482412
-0.498629
-0.595935
-0.502684
-0.587826
-0.518901
-0.514847
-0.640533
-0.494575
-0.616207
-0.628370
-0.543228
-0.660805
-0.563500
-0.616207
-0.640533
-0.604044
-0.672968
-0.624316
-1.333835
1.240707
-0.255365
1.192054
1.256925
1.447481
0.851485
1.386665
1.228544
0.693364
-0.640533
1.070422
1.333958
1.273142
1.050150
1.232598
-1.277074
-2.031192
1.163674
1.005552
1.285306
1.025824
1.856976
1.171782
-0.535119
-1.536555
-1.033810
-1.029755
1.127184
0.985280
1.220435
0.960954
1.082586
1.058259
0.952845
-0.620261
0.778506
-1.062191
-2.319054
1.005552
-0.758111
0.774451
0.778506
1.228544
0.616330
1.240707
3.012479
0.450100
1.062314
1.102858
1.192054
0.806887
-1.216258
-2.270401
0.454154
1.163674
0.867703
-1.362216
-2.096062
-1.568990
-1.017592
-0.944613
-1.532501
-0.818927
-1.491957
-1.151387
0.786615
0.506861
-0.847307
-1.475739
0.336577
-0.956776
-1.609534
0.977171
0.742016
-0.806764
1.001498
0.506861
0.928519
0.717690
0.733907
-1.029755
-1.516283
-1.208149
-1.216258
-0.056700
1.378557
0.381175
0.656874
0.851485
0.494698
0.863648
0.632548
0.616330
0.827159
0.506861
0.782560
-0.835144
-1.487902
0.766343
0.575786
0.709581
-1.289237
-1.467630
-1.305454
0.616330
0.206836
0.600112
0.539296
0.782560
0.636602
-0.190495
0.742016
0.579840
-1.195986
0.571732
0.693364
0.863648
0.498752
0.843376
0.628493
0.640656
0.344685
0.527133
0.810941
0.721744
0.604167
0.871757
-0.912178
-1.293291
0.725799
0.697418
0.900138
0.620384
0.802832
0.798778
0.656874
0.900138
0.693364
-0.741893
-1.187877
-1.329781
-1.252747
0.685255
0.855539
0.928519
0.648765
0.989335
-0.989211
-0.575663
0.944736
0.766343
0.944736
0.831213
-0.563500
-1.021647
0.758234
0.514970
0.547405
0.567677
0.559568
0.754179
1.021770
0.936627
0.814995
0.887975
-0.754056
0.636602
-0.977048
-1.204094
-1.009483
0.433882
0.446045
-0.628370
0.823104
1.058259
1.050150
0.685255
-0.794600
0.312250
1.232598
-0.470249
-1.277074
-0.409433
-1.066245
-0.871634
-0.867579
0.000062
1.179891
1.046096
0.206836
-0.697295
-0.608098
1.131238
1.256925
-1.017592
1.236653
-0.867579
-0.891906
-0.818927
-0.875688
-0.831090
-0.855416
-0.871634
-0.770274
-0.859471
-0.810818
-0.790546
-0.831090
-0.802709
-0.831090
-0.790546
-0.754056
-0.818927
-0.741893
-0.790546
-0.964885
-0.972994
-0.798655
-0.697295
-0.445922
-0.745948
-0.693240
-0.778383
-0.677023
-0.721621
-0.721621
-0.668914
0.940682
-0.599989
-0.729730
-0.766220
-0.612152
0.924464
-0.587826
-0.705404
1.556950
-0.433759
-0.814872
-0.595935
-0.498629
-0.928395
-0.506738
-0.802709
-0.774328
-0.547282
-1.131115
1.443427
1.333958
0.036551
1.394774
-0.758111
1.321795
-1.840635
2.623257
-1.135170
-0.681077
1.115021
1.601549
1.123130
1.378557
1.447481
1.070422
-0.470249
1.115021
1.285306
1.520461
0.989335
1.581277
1.216381
1.216381
-0.433759
-1.021647
1.524515
1.374502
1.131238
-0.421596
-0.891906
1.297469
1.508297
1.078531
0.981226
-0.750002
-0.806764
-0.510792
-0.900015
-0.583772
-0.689186
-0.855416
-0.506738
-0.831090
-0.632424
-0.632424
-0.827035
0.433882
-0.786492
2.051587
0.823104
-0.766220
-1.747384
1.301523
1.265034
1.483971
1.208272
-0.587826
-0.758111
0.956899
-0.016156
1.410992
-0.360780
-0.664860
-0.449977
-0.462140
-0.916232
-0.750002
-1.313563
-1.021647
-0.510792
-0.506738
-0.806764
-0.158060
-0.952722
-0.575663
-0.778383
-0.774328
-0.433759
-0.778383
-0.328345
-1.293291
-0.887851
-0.559445
-0.360780
-0.754056
-0.652696
-0.956776
-0.583772
-0.843253
0.105476
1.374502
1.102858
1.244762
1.212326
1.208272
1.374502
1.131238
1.313686
1.244762
1.143402
1.309632
-0.867579
-0.782437
-0.798655
-0.891906
-0.717567
-0.847307
-0.843253
1.058259
-0.802709
-0.782437
-1.094626
1.147456
1.338013
-0.940559
-0.871634
-0.871634
-0.794600
-0.924341
-0.802709
-0.887851
-0.908123
-0.802709
-0.940559
-0.693240
1.106912
-0.814872
1.017715
1.090694
-0.762165
-0.166169
-0.843253
-0.863525
-1.082463
-0.782437
-1.078408
0.539296
1.204218
0.948791
1.208272
1.042042
1.009607
1.192054
-0.591880
1.082586
-0.952722
-0.839199
-0.989211
-1.005429
-1.066245
0.600112
0.985280
-0.985157
-1.195986
0.920410
1.070422
0.887975
0.985280
1.013661
0.855539
1.037987
0.892029
0.908247
0.985280
-1.175714
0.875811
0.535242
-1.082463
-1.212203
-1.135170
0.608221
-0.936504
-0.904069
0.141965
0.685255
0.798778
0.843376
0.912301
-1.232475
0.819050
0.843376
0.835267
0.839322
0.778506
0.794723
-1.167605
0.369012
0.823104
0.908247
-1.285182
0.814995
0.814995
0.831213
-1.102735
-1.248693
-1.220312
-1.183822
-1.248693
0.774451
0.843376
-0.376997
0.462263
0.754179
-0.928395
-1.256802
-1.127061
1.678582
-0.705404
0.806887
0.742016
0.981226
0.709581
-1.066245
-1.195986
-1.305454
2.315122
0.774451
0.908247
0.831213
0.863648
-1.078408
-1.086517
0.871757
0.940682
0.802832
0.936627
0.851485
0.887975
0.952845
0.819050
-0.985157
-1.106789
0.746071
0.802832
-0.081026
-1.062191
-1.074354
-1.552773
1.706963
0.514970
0.981226
0.985280
1.001498
1.840758
-0.806764
-1.236530
0.912301
1.123130
0.969063
1.042042
1.110966
0.977171
1.139347
1.037987
1.066368
1.163674
1.013661
1.167728
1.131238
1.102858
0.827159
-0.616207
1.135293
1.175837
1.167728
1.224490
1.994825
-0.770274
-0.778383
-1.771710
-0.604044
-0.737839
-0.729730
-0.766220
-1.702785
-0.762165
-0.409433
-0.393215
-0.644588
-0.486466
-0.620261
-0.677023
-0.571608
-0.616207
-0.608098
-0.518901
1.840758
0.048714
-0.798655
-0.656751
-0.397269
-0.222930
-0.441868
-1.654133
1.277197
-0.243202
-0.559445
-0.531064
-0.279692
-0.685132
-0.287801
-0.449977
-0.575663
-0.214821
-0.595935
-0.283746
-0.352671
-0.514847
-0.186441
-0.482412
-0.275637
-0.255365
-0.482412
-0.887851
-0.449977
-0.348617
-0.170223
-0.697295
-0.020210
0.000062
-0.093190
-0.105353
-0.454031
-0.190495
-0.263474
-0.340508
-0.141842
-0.385106
-0.222930
-0.239148
-0.348617
-0.137788
-0.324290
-0.231039
-0.202658
-0.364834
0.073041
-0.279692
-0.255365
-0.166169
-0.328345
-0.024265
-0.158060
-0.231039
-0.162114
-0.316181
-0.178332
-0.235093
-0.271583
-0.145897
-0.312127
-0.206713
-0.206713
-0.283746
-0.190495
-0.267529
-0.251311
-0.202658
-0.304018
-0.206713
-0.279692
-0.279692
-0.239148
-0.324290
-0.247257
-0.340508
-0.308073
-0.239148
-0.336453
-0.271583
-0.295909
-0.360780
-0.283746
-0.308073
-0.316181
-0.336453
-0.356725
-0.299964
-0.368889
-0.356725
-0.332399
-0.405378
-0.364834
-0.385106
-0.385106
-0.376997
-0.405378
-0.401324
-0.409433
1.046096
-1.183822
-0.616207
-0.502684
-0.372943
-0.563500
-0.372943
-0.506738
-0.539173
-0.393215
-0.640533
-0.445922
1.479917
-0.304018
1.520461
2.282687
-0.887851
-0.202658
-0.320236
-0.454031
-0.632424
-0.044537
0.693364
0.977171
1.617766
1.183946
1.532624
1.370448
1.289360
1.552896
1.196109
1.471808
-0.579717
1.167728
1.556950
1.224490
1.269088
-0.879743
1.098803
1.200163
1.366393
1.155565
1.398829
-0.875688
-0.672968
-0.604044
-0.847307
-0.316181
1.163674
0.952845
1.439373
0.685255
-0.486466
-0.855416
-0.741893
-0.583772
-0.940559
-0.555391
-0.806764
-0.831090
-0.563500
-1.313563
-0.636479
-0.016156
-0.818927
-0.604044
-0.985157
1.293414
1.317741
1.159619
1.183946
1.151510
0.036551
0.656874
-0.693240
-2.043355
1.054205
1.293414
1.285306
-0.924341
-0.628370
1.046096
1.638038
2.035369
0.612276
0.231162
-0.964885
-0.810818
-0.725676
-0.972994
-0.689186
-0.875688
-0.689186
-0.689186
-0.948667
0.823104
1.179891
0.965008
-0.693240
-0.940559
-0.786492
-0.790546
-0.960831
0.855539
-0.851362
-0.855416
-0.612152
1.102858
1.244762
1.196109
1.281251
-0.754056
-1.958212
1.098803
1.265034
1.078531
-0.782437
-0.879743
-0.960831
-1.066245
-0.981103
1.167728
1.236653
-0.072918
1.155565
1.147456
-0.851362
-0.895960
-0.924341
-0.818927
-0.936504
-0.883797
-0.705404
-0.599989
-0.474303
-0.944613
-0.900015
-0.863525
-0.924341
-0.843253
-0.920287
-0.936504
-0.883797
-0.968939
-0.879743
-0.940559
-0.960831
-0.920287
-0.993266
-0.701349
-1.443304
0.831213
1.098803
1.021770
0.940682
1.070422
0.855539
1.058259
-0.936504
0.859594
1.074477
0.973117
0.896083
1.110966
0.859594
0.977171
-0.993266
-1.187877
0.956899
0.433882
-1.094626
0.916355
0.892029
-0.960831
-1.195986
0.875811
0.969063
0.806887
0.956899
0.871757
0.835267
0.952845
0.790669
0.892029
0.863648
0.620384
-1.041919
0.855539
-1.187877
-1.127061
-1.305454
0.973117
-0.920287
0.835267
-2.323108
0.640656
0.916355
0.928519
0.656874
-0.972994
-1.601425
0.770397
0.985280
0.592004
0.969063
0.798778
0.733907
-0.981103
-1.410869
0.851485
0.871757
0.085204
0.940682
0.709581
2.785433
-1.459521
-1.431141
-1.179768
-1.127061
-1.520337
0.985280
0.717690
0.835267
-1.114898
-1.345998
-1.090571
0.721744
-1.175714
0.904192
0.664983
0.969063
0.742016
0.810941
0.928519
0.693364
0.973117
0.681200
-1.216258
0.904192
0.535242
0.969063
0.774451
0.883920
0.936627
-1.163550
0.908247
0.871757
0.936627
0.904192
-0.652696
-1.078408
-1.131115
-1.086517
-1.151387
-0.997320
0.973117
-1.066245
-1.082463
0.871757
1.094749
-1.041919
-0.008047
0.737962
0.746071
1.021770
0.831213
-0.997320
0.575786
1.017715
1.062314
1.050150
1.090694
1.086640
1.086640
1.090694
1.086640
-0.701349
0.969063
1.139347
1.200163
1.070422
1.220435
1.147456
-0.822981
-0.774328
-0.871634
-0.713512
-0.847307
-0.786492
0.798778
-0.758111
0.709581
0.965008
1.321795
1.143402
1.524515
-0.299964
-0.750002
-0.628370
-0.648642
-0.713512
-0.575663
-0.677023
-0.652696
-0.567554
-0.668914
-1.901451
2.408374
1.260979
-0.214821
-0.725676
-0.368889
-0.632424
-0.527010
-0.393215
-0.709458
-0.381052
-0.531064
-0.543228
-0.360780
-0.644588
-0.401324
-0.458085
-0.555391
-0.336453
-0.587826
-0.421596
-0.409433
-0.555391
-0.324290
-0.510792
-0.405378
-0.364834
-0.539173
-0.324290
-0.470249
-0.437813
-0.316181
-0.494575
-0.348617
-0.425650
-0.466194
-0.320236
-0.482412
-0.368889
-0.389161
-0.454031
-0.312127
-0.454031
-0.368889
-0.364834
-0.490521
-0.328345
-0.449977
-0.413487
-0.385106
-0.490521
-0.352671
-0.433759
-0.462140
-0.393215
-0.474303
-0.401324
-0.401324
-0.445922
-0.385106
-0.478357
-0.417541
-0.393215
-0.470249
-0.397269
-0.482412
-0.413487
-0.437813
-0.514847
-0.433759
-0.478357
-0.486466
-0.433759
-0.551336
-0.466194
-0.498629
-0.486466
-0.474303
-0.551336
-0.527010
-0.514847
-0.555391
-0.486466
-0.575663
-1.731166
1.958335
1.167728
-0.024265
-0.725676
-0.482412
-0.721621
-0.652696
-0.571608
-0.729730
-0.579717
-0.693240
-0.717567
-0.567554
-0.794600
1.366393
0.214945
1.252870
2.213763
1.350176
-0.640533
-0.705404
-0.806764
1.208272
-1.467630
1.119075
1.248816
1.285306
1.090694
1.346121
1.110966
1.179891
1.244762
3.016533
1.232598
1.090694
1.066368
1.317741
0.912301
1.244762
1.131238
1.005552
1.597494
0.981226
2.554332
1.212326
-1.029755
1.151510
1.078531
1.098803
1.135293
-0.932450
-0.944613
-0.972994
-0.928395
-0.968939
-0.948667
-0.936504
-0.989211
-0.940559
-0.977048
-0.968939
-0.024265
0.320359
0.567677
0.227108
0.470372
-0.924341
-0.997320
0.989335
1.110966
1.025824
0.085204
-0.879743
-1.045973
-0.928395
0.677146
0.701472
-0.908123
-1.556827
1.054205
1.058259
1.009607
1.090694
1.021770
1.033933
1.054205
0.997443
1.078531
2.002934
-0.940559
-1.552773
-0.883797
-0.908123
-1.070299
-1.013538
-0.952722
-1.114898
-0.847307
-1.050027
-0.859471
-0.835144
-0.839199
0.887975
1.033933
0.859594
-0.762165
-0.158060
0.770397
-0.879743
-2.002811
0.608221
0.587949
1.561005
0.908247
1.001498
1.025824
0.981226
0.462263
1.086640
-0.944613
-1.098680
-0.510792
0.624439
0.993389
1.086640
0.944736
1.078531
1.029879
0.758234
-0.494575
-1.098680
-0.774328
0.559568
1.224490
-0.263474
-0.794600
-0.997320
-0.936504
-1.114898
-0.912178
-1.029755
-1.041919
-0.936504
-1.110843
-0.940559
-1.025701
-1.066245
-0.579717
-0.340508
-0.968939
-0.672968
-1.500065
-0.802709
-1.102735
-0.859471
0.206836
0.271706
-0.060754
-1.500065
-1.025701
-1.062191
-1.106789
-1.025701
-1.139224
-1.090571
-1.074354
-1.135170
-1.041919
0.210890
0.867703
0.851485
0.819050
0.956899
0.855539
0.506861
0.871757
0.774451
0.928519
0.823104
0.810941
0.863648
0.794723
0.863648
1.289360
0.823104
-1.118952
-1.252747
-1.191931
0.737962
0.742016
0.859594
0.697418
-1.135170
0.146020
0.498752
0.875811
0.616330
0.839322
0.758234
0.689309
0.871757
0.592004
0.790669
0.742016
0.620384
0.819050
0.624439
0.717690
-1.212203
-1.431141
-1.224366
-1.341944
-1.370325
0.754179
0.616330
0.754179
0.677146
0.656874
0.729853
0.612276
0.616330
-0.968939
0.450100
-1.232475
-1.451413
-0.535119
0.766343
0.551460
0.689309
0.652820
0.579840
0.742016
0.218999
0.660928
0.660928
0.555514
0.733907
0.604167
0.636602
0.677146
0.559568
0.725799
0.640656
-1.143278
-1.354107
-1.439249
-1.273019
0.369012
-0.336453
0.669037
0.417665
0.790669
1.828595
0.721744
-1.123006
-1.423032
-1.155442
-1.467630
0.616330
-1.281128
0.612276
0.656874
0.766343
-1.475739
-1.127061
0.482535
-0.640533
-1.240584
0.450100
0.960954
0.555514
0.737962
-0.737839
0.466317
0.977171
0.701472
0.624439
1.033933
0.514970
-1.070299
-1.260856
-1.398706
1.033933
0.596058
0.940682
-2.237966
0.559568
1.094749
0.746071
0.774451
1.070422
0.612276
1.058259
0.892029
0.746071
0.883920
0.713636
1.037987
1.001498
-0.693240
1.390720
0.831213
0.478480
-1.001375
-1.487902
-0.900015
-1.727112
0.867703
1.163674
0.977171
-0.904069
1.029879
1.037987
-0.790546
-1.123006
-0.843253
-0.656751
0.044660
1.293414
1.033933
1.175837
1.260979
1.046096
1.305578
1.143402
1.212326
2.452972
1.159619
0.685255
-0.709458
1.200163
-0.624316
-0.855416
0.855539
-0.433759
-1.666296
1.273142
0.255489
-0.725676
-1.183822
-0.677023
-0.664860
-0.624316
-0.818927
-0.571608
-0.616207
-0.632424
-0.531064
-0.640533
-0.571608
-0.547282
-0.591880
-0.482412
-0.543228
-0.510792
-0.474303
-0.527010
-0.449977
-0.502684
-0.490521
-0.433759
-0.458085
-0.421596
-0.441868
-0.437813
-0.389161
-0.441868
-0.360780
-0.376997
-0.389161
-0.324290
-0.405378
-0.376997
-0.348617
-0.368889
-0.336453
-0.348617
-0.344562
-0.287801
-0.336453
-0.275637
-0.328345
-0.328345
-0.267529
-0.328345
-0.255365
-0.308073
-0.283746
-0.243202
-0.263474
-0.239148
-0.243202
-0.226985
