-0.008047
0.000062
-0.003993
0.004116
0.004116
0.004116
0.008170
0.008170
0.000062
0.004116
0.012225
0.036551
0.048714
0.040606
0.020334
0.004116
-0.008047
-0.003993
-0.003993
-0.012102
0.000062
-0.003993
-0.008047
-0.008047
-0.008047
-0.008047
0.056823
0.150074
-0.020210
-0.401324
-0.393215
-0.133734
-0.028319
-0.020210
-0.008047
0.000062
0.004116
0.008170
0.000062
0.008170
-0.003993
0.004116
0.012225
0.012225
0.004116
0.020334
0.020334
0.024388
0.024388
0.012225
0.016279
0.008170
0.004116
-0.008047
-0.016156
-0.016156
-0.008047
0.000062
0.004116
0.012225
0.024388
0.004116
0.000062
0.004116
0.008170
0.012225
0.008170
0.016279
0.020334
0.024388
0.028442
0.040606
0.032497
0.036551
0.032497
0.028442
0.024388
0.020334
0.024388
0.028442
0.028442
0.036551
0.044660
0.040606
0.036551
0.040606
0.040606
0.044660
0.040606
0.044660
0.044660
0.044660
0.036551
0.032497
0.028442
0.032497
0.028442
0.028442
0.032497
0.028442
0.032497
0.028442
0.032497
0.036551
0.032497
0.040606
0.028442
0.044660
0.024388
0.028442
0.036551
0.040606
0.048714
0.064932
0.056823
0.052769
0.028442
0.024388
0.012225
0.016279
0.008170
0.020334
0.008170
0.012225
0.012225
0.012225
0.016279
0.052769
0.121693
0.040606
-0.291855
-0.364834
-0.166169
-0.028319
-0.016156
0.012225
0.012225
0.016279
0.024388
0.028442
0.020334
0.016279
0.012225
0.024388
0.020334
0.020334
0.016279
0.020334
0.020334
0.020334
0.020334
0.020334
0.016279
0.008170
0.000062
0.000062
-0.003993
0.000062
0.000062
0.012225
-0.003993
0.004116
0.004116
0.008170
0.000062
0.008170
0.008170
0.004116
0.004116
0.012225
0.024388
0.016279
0.008170
0.012225
0.004116
0.004116
-0.016156
0.000062
-0.008047
0.004116
0.004116
0.016279
0.012225
0.012225
0.012225
0.016279
0.012225
0.008170
0.016279
0.004116
0.004116
0.000062
0.004116
0.004116
0.012225
0.012225
0.020334
0.020334
0.008170
-0.003993
0.012225
0.008170
0.016279
0.016279
0.012225
0.016279
0.024388
0.012225
0.016279
0.004116
0.020334
0.020334
0.036551
0.032497
0.036551
0.020334
0.004116
-0.012102
-0.003993
0.004116
-0.003993
-0.008047
-0.008047
-0.016156
-0.020210
-0.032374
-0.024265
-0.008047
0.068986
0.024388
-0.251311
-0.360780
-0.218876
-0.081026
-0.052646
-0.036428
-0.024265
-0.020210
-0.020210
-0.028319
-0.020210
-0.008047
-0.003993
0.004116
-0.003993
0.004116
-0.003993
0.004116
0.000062
-0.003993
-0.016156
-0.020210
-0.008047
0.000062
0.000062
-0.003993
-0.012102
-0.003993
-0.003993
-0.003993
-0.008047
-0.012102
-0.008047
-0.003993
-0.012102
-0.003993
-0.012102
-0.012102
-0.012102
-0.008047
-0.008047
-0.003993
-0.008047
-0.008047
-0.016156
-0.016156
-0.012102
-0.003993
-0.008047
0.000062
0.000062
-0.012102
-0.016156
-0.024265
-0.012102
-0.016156
-0.024265
-0.024265
-0.020210
-0.012102
-0.020210
-0.012102
0.000062
0.008170
0.016279
0.012225
0.012225
0.008170
0.004116
0.008170
-0.003993
0.008170
0.004116
0.004116
0.000062
-0.003993
0.000062
0.004116
0.000062
0.004116
0.016279
0.020334
0.040606
0.044660
0.032497
-0.003993
-0.016156
-0.028319
-0.024265
-0.016156
-0.003993
-0.003993
0.000062
0.000062
-0.003993
-0.012102
-0.020210
0.032497
0.097367
-0.101298
-0.352671
-0.364834
-0.121570
-0.044537
-0.032374
-0.020210
-0.020210
-0.012102
-0.012102
-0.008047
-0.003993
-0.012102
-0.012102
0.008170
0.008170
0.004116
0.004116
0.004116
0.000062
0.000062
-0.003993
-0.012102
-0.008047
0.000062
-0.012102
-0.003993
-0.003993
-0.008047
0.000062
0.000062
-0.003993
0.000062
0.004116
0.012225
0.008170
0.012225
0.004116
0.008170
0.016279
0.008170
0.004116
0.012225
0.008170
0.012225
0.000062
0.008170
0.008170
0.016279
0.020334
0.020334
0.016279
0.020334
0.020334
0.024388
0.020334
0.012225
0.020334
0.012225
0.016279
0.012225
0.016279
0.024388
0.012225
0.012225
0.008170
0.012225
0.008170
0.008170
0.016279
0.020334
0.028442
0.008170
0.012225
0.000062
0.008170
0.008170
0.008170
0.012225
0.016279
0.016279
0.020334
0.032497
0.032497
0.036551
0.028442
0.008170
-0.012102
-0.008047
-0.008047
-0.020210
0.008170
0.016279
0.016279
0.020334
0.012225
0.020334
0.016279
0.077095
0.150074
-0.040482
-0.405378
-0.376997
-0.109407
-0.016156
-0.003993
0.000062
0.008170
0.004116
0.008170
0.008170
0.012225
0.004116
0.008170
0.012225
0.004116
0.012225
0.004116
0.008170
0.008170
0.000062
0.008170
0.000062
-0.008047
-0.008047
-0.008047
-0.003993
-0.003993
-0.003993
-0.003993
-0.008047
-0.008047
0.004116
0.004116
0.016279
0.012225
0.004116
0.004116
0.008170
0.000062
0.004116
0.016279
0.024388
0.024388
0.024388
0.024388
0.024388
0.020334
0.016279
0.020334
0.024388
0.028442
0.036551
0.036551
0.036551
0.028442
0.020334
0.012225
0.000062
0.004116
0.008170
0.008170
0.024388
0.012225
0.020334
0.024388
0.024388
0.024388
0.004116
0.004116
0.000062
-0.003993
0.004116
0.008170
0.012225
0.012225
0.012225
0.012225
0.020334
0.028442
0.028442
0.028442
0.040606
0.044660
0.056823
0.044660
0.028442
0.008170
0.000062
-0.016156
-0.016156
-0.020210
-0.020210
-0.020210
-0.024265
0.000062
-0.003993
0.004116
0.016279
0.101422
0.064932
-0.239148
-0.360780
-0.218876
-0.060754
-0.016156
-0.003993
0.004116
-0.003993
0.012225
0.000062
0.008170
0.012225
0.000062
0.004116
0.004116
0.004116
0.000062
-0.008047
0.008170
0.008170
0.008170
0.012225
0.008170
0.016279
0.004116
0.000062
-0.012102
-0.020210
-0.012102
-0.012102
-0.020210
-0.012102
-0.008047
-0.003993
-0.003993
-0.003993
-0.003993
0.000062
0.000062
0.004116
0.012225
0.016279
0.004116
0.012225
0.004116
0.012225
0.008170
0.008170
0.012225
0.008170
0.020334
0.012225
0.016279
0.012225
0.028442
0.020334
0.024388
0.024388
0.004116
0.008170
0.000062
-0.008047
-0.012102
-0.003993
0.000062
0.000062
0.000062
0.012225
0.016279
0.020334
0.020334
0.016279
0.016279
0.012225
0.008170
0.020334
0.016279
0.012225
0.008170
0.004116
0.016279
0.016279
0.020334
0.028442
0.048714
0.044660
0.028442
0.012225
0.008170
0.000062
0.000062
0.004116
0.004116
-0.003993
0.004116
0.008170
0.004116
0.020334
0.012225
0.073041
0.113585
-0.125625
-0.401324
-0.299964
-0.064809
-0.003993
0.008170
0.012225
0.008170
0.000062
0.012225
0.004116
0.024388
0.028442
0.020334
0.024388
0.020334
0.020334
0.004116
0.004116
0.008170
0.008170
0.008170
0.012225
0.004116
-0.012102
-0.008047
-0.003993
-0.003993
-0.003993
-0.012102
-0.012102
-0.012102
-0.016156
-0.008047
0.004116
0.004116
0.020334
0.016279
0.020334
0.020334
0.016279
0.016279
0.012225
0.020334
0.020334
0.016279
0.016279
0.020334
0.024388
0.020334
0.028442
0.024388
0.028442
0.028442
0.044660
0.032497
0.048714
0.044660
0.040606
0.048714
0.040606
0.044660
0.040606
0.032497
0.028442
0.024388
0.036551
0.008170
0.016279
0.004116
0.000062
0.008170
0.028442
0.016279
0.016279
0.016279
0.008170
0.016279
0.012225
0.016279
0.036551
0.048714
0.060878
0.060878
0.048714
0.016279
0.000062
-0.008047
0.000062
0.000062
0.000062
-0.008047
0.008170
0.012225
0.008170
0.016279
0.012225
0.060878
0.101422
-0.105353
-0.312127
-0.308073
-0.085081
-0.024265
-0.003993
-0.016156
0.000062
0.004116
0.012225
0.008170
0.008170
0.012225
0.016279
0.020334
0.016279
0.024388
0.028442
0.032497
0.032497
0.044660
0.036551
0.036551
0.032497
0.024388
0.016279
0.012225
0.016279
0.012225
0.020334
0.016279
0.020334
0.016279
0.012225
0.012225
0.016279
0.016279
0.012225
0.016279
0.020334
0.024388
0.028442
0.028442
0.020334
0.012225
0.020334
0.020334
0.016279
0.020334
0.016279
0.008170
0.016279
0.020334
0.024388
0.020334
0.012225
0.004116
0.000062
-0.008047
-0.020210
-0.003993
0.004116
0.000062
-0.003993
-0.012102
-0.008047
-0.008047
0.000062
0.012225
0.008170
0.004116
0.008170
-0.003993
0.008170
0.008170
0.004116
0.000062
-0.008047
-0.008047
-0.008047
-0.012102
0.000062
0.004116
0.008170
-0.003993
-0.032374
-0.020210
-0.008047
-0.003993
0.000062
-0.003993
-0.003993
0.004116
0.004116
-0.003993
-0.012102
-0.008047
0.044660
0.081150
-0.154006
-0.413487
-0.368889
-0.117516
-0.060754
-0.036428
-0.016156
-0.008047
-0.008047
0.000062
0.000062
0.000062
-0.003993
-0.008047
-0.003993
-0.016156
-0.016156
-0.024265
-0.016156
-0.016156
-0.003993
0.000062
0.012225
0.012225
0.024388
0.024388
0.024388
0.012225
0.004116
-0.003993
-0.003993
-0.012102
-0.008047
-0.012102
-0.016156
-0.020210
-0.012102
0.004116
0.012225
0.020334
0.012225
0.016279
0.020334
0.036551
0.040606
0.048714
0.048714
0.040606
0.040606
0.040606
0.036551
0.032497
0.020334
0.008170
0.004116
0.004116
-0.008047
0.000062
0.000062
-0.003993
0.004116
0.008170
0.008170
0.012225
0.004116
0.012225
0.008170
0.012225
0.016279
0.008170
0.000062
-0.012102
0.000062
-0.012102
-0.003993
-0.012102
-0.012102
-0.012102
-0.020210
-0.012102
-0.012102
0.000062
0.008170
0.008170
0.000062
-0.016156
-0.032374
-0.040482
-0.040482
-0.024265
-0.024265
-0.012102
-0.008047
-0.016156
-0.012102
-0.024265
-0.012102
0.040606
0.125748
-0.089135
-0.462140
-0.413487
-0.121570
-0.028319
-0.024265
-0.016156
-0.012102
-0.016156
-0.003993
0.008170
0.008170
0.008170
0.008170
0.024388
0.016279
0.016279
0.012225
0.020334
0.020334
0.012225
0.008170
0.000062
-0.003993
-0.003993
-0.012102
-0.016156
-0.012102
-0.016156
0.000062
-0.008047
-0.003993
-0.003993
0.000062
0.012225
0.004116
0.008170
0.012225
0.028442
0.028442
0.036551
0.032497
0.036551
0.024388
0.016279
0.032497
0.024388
0.028442
0.036551
0.048714
0.044660
0.044660
0.036551
0.024388
0.036551
0.036551
0.036551
0.044660
0.048714
0.048714
0.052769
0.040606
0.040606
0.032497
0.032497
0.020334
0.024388
0.032497
0.028442
0.040606
0.036551
0.040606
0.036551
0.032497
0.028442
0.032497
0.024388
0.016279
0.028442
0.016279
0.024388
0.040606
0.048714
0.056823
0.060878
0.044660
0.016279
-0.008047
-0.012102
-0.003993
0.000062
-0.003993
-0.003993
-0.003993
-0.012102
-0.012102
-0.012102
-0.012102
0.052769
0.105476
-0.097244
-0.368889
-0.304018
-0.076972
-0.028319
-0.016156
-0.012102
-0.003993
-0.008047
0.008170
0.008170
0.008170
0.012225
0.004116
0.008170
0.008170
0.008170
-0.003993
0.008170
0.004116
0.000062
0.004116
0.000062
0.004116
0.004116
-0.003993
-0.016156
-0.020210
-0.020210
-0.028319
-0.016156
-0.012102
-0.016156
-0.012102
-0.012102
0.004116
0.008170
-0.003993
0.008170
-0.003993
-0.020210
-0.008047
-0.008047
-0.012102
-0.003993
0.000062
0.004116
0.008170
0.012225
0.004116
0.016279
0.004116
0.004116
-0.003993
0.008170
0.012225
0.012225
0.016279
0.016279
-0.003993
0.012225
0.004116
0.004116
0.008170
0.000062
0.008170
0.012225
0.012225
0.020334
0.016279
0.012225
0.012225
0.016279
0.016279
0.012225
0.020334
0.020334
0.020334
0.016279
0.016279
0.016279
0.024388
0.036551
0.044660
0.048714
0.040606
0.020334
0.004116
-0.003993
-0.003993
-0.003993
0.012225
0.012225
0.016279
0.020334
0.016279
0.024388
0.032497
0.097367
0.154129
-0.076972
-0.356725
-0.267529
-0.028319
0.008170
0.020334
0.012225
0.024388
0.024388
0.012225
0.020334
0.028442
0.032497
0.040606
0.044660
0.044660
0.048714
0.040606
0.036551
0.040606
0.032497
0.020334
0.016279
0.024388
0.020334
0.020334
0.012225
0.016279
0.000062
-0.003993
0.000062
-0.012102
-0.008047
-0.024265
-0.016156
-0.016156
-0.012102
-0.003993
-0.012102
0.012225
0.004116
0.000062
0.008170
0.004116
-0.008047
-0.003993
-0.003993
-0.003993
-0.012102
-0.012102
-0.012102
-0.016156
-0.012102
-0.012102
-0.012102
-0.016156
-0.016156
-0.024265
-0.020210
-0.016156
-0.012102
-0.008047
0.000062
0.000062
0.004116
0.004116
-0.003993
0.000062
0.000062
-0.003993
0.008170
0.004116
0.004116
0.004116
0.004116
0.000062
0.000062
0.008170
0.000062
-0.012102
-0.012102
-0.003993
0.004116
0.000062
0.008170
-0.008047
-0.036428
-0.040482
-0.036428
-0.028319
-0.028319
-0.036428
-0.028319
-0.024265
-0.032374
-0.024265
-0.032374
-0.028319
0.032497
0.093313
-0.133734
-0.336453
-0.328345
-0.101298
-0.036428
-0.032374
-0.020210
-0.012102
-0.020210
-0.020210
-0.016156
-0.016156
-0.012102
-0.008047
0.004116
0.000062
0.000062
-0.008047
0.000062
0.000062
-0.008047
-0.008047
0.000062
-0.003993
0.000062
0.000062
-0.003993
-0.003993
-0.008047
-0.008047
-0.008047
-0.012102
-0.016156
-0.016156
-0.012102
-0.016156
-0.016156
-0.008047
-0.012102
-0.003993
-0.012102
0.004116
0.016279
0.016279
0.020334
0.012225
0.008170
0.008170
0.008170
0.004116
0.000062
-0.012102
-0.016156
-0.008047
-0.012102
-0.016156
0.000062
-0.003993
-0.003993
0.000062
0.012225
0.012225
0.016279
0.028442
0.008170
0.004116
0.008170
0.008170
0.012225
0.012225
0.016279
0.012225
0.016279
0.020334
0.016279
0.020334
0.016279
0.012225
0.008170
0.012225
0.032497
0.040606
0.044660
0.052769
0.024388
0.008170
-0.008047
-0.008047
-0.003993
-0.003993
0.008170
0.004116
0.008170
0.016279
0.028442
0.016279
0.052769
0.137911
0.000062
-0.328345
-0.372943
-0.166169
-0.044537
-0.020210
-0.012102
-0.008047
-0.003993
0.000062
-0.003993
0.004116
0.004116
0.000062
0.000062
0.004116
0.008170
0.004116
0.004116
0.000062
-0.016156
-0.003993
-0.003993
-0.012102
-0.012102
-0.012102
-0.012102
-0.024265
-0.016156
-0.020210
-0.024265
-0.024265
-0.024265
-0.020210
-0.003993
-0.008047
-0.008047
-0.003993
0.004116
0.000062
-0.003993
-0.003993
-0.003993
0.004116
0.004116
0.000062
-0.003993
0.000062
-0.008047
0.004116
0.000062
-0.008047
-0.008047
-0.016156
-0.003993
0.004116
0.012225
0.016279
0.020334
0.016279
0.020334
0.016279
0.020334
0.012225
0.016279
0.008170
0.004116
0.008170
0.008170
0.012225
0.012225
0.024388
0.024388
0.024388
0.028442
0.028442
0.028442
0.020334
0.016279
0.024388
0.024388
0.028442
0.040606
0.048714
0.052769
0.064932
0.048714
0.032497
0.016279
0.012225
0.012225
0.024388
0.004116
0.016279
0.020334
0.020334
0.016279
0.016279
0.024388
0.077095
0.158183
-0.052646
-0.405378
-0.328345
-0.060754
-0.012102
0.004116
0.020334
0.016279
0.008170
0.012225
0.008170
0.020334
0.012225
0.012225
0.024388
0.012225
0.008170
0.008170
0.008170
0.024388
0.016279
0.008170
0.008170
0.000062
0.012225
0.000062
0.004116
0.000062
-0.003993
-0.008047
-0.020210
-0.016156
-0.008047
0.000062
-0.003993
0.004116
-0.008047
-0.003993
0.000062
0.004116
0.004116
0.004116
0.008170
0.008170
0.008170
0.004116
0.004116
0.012225
0.012225
-0.003993
0.008170
0.016279
0.016279
0.008170
0.012225
0.012225
0.020334
0.020334
0.024388
0.020334
0.012225
0.016279
0.012225
0.020334
0.024388
0.024388
0.012225
0.008170
0.012225
0.016279
0.016279
0.020334
0.016279
0.024388
0.020334
0.016279
0.016279
0.020334
0.016279
0.012225
0.008170
0.020334
0.024388
0.044660
0.056823
0.044660
0.028442
0.004116
-0.003993
-0.008047
0.004116
0.000062
0.004116
0.000062
0.008170
-0.008047
0.004116
0.012225
0.048714
0.125748
-0.024265
-0.376997
-0.324290
-0.093190
-0.012102
-0.003993
0.008170
0.000062
0.008170
0.016279
0.012225
0.016279
0.020334
0.024388
0.024388
0.024388
0.024388
0.020334
0.016279
0.024388
0.020334
0.020334
0.016279
0.008170
0.016279
0.004116
0.004116
0.004116
0.008170
0.004116
0.000062
-0.003993
0.000062
-0.008047
0.000062
0.000062
-0.003993
0.000062
0.004116
0.004116
0.004116
0.008170
0.012225
0.004116
0.012225
0.008170
0.008170
0.028442
0.028442
0.028442
0.032497
0.028442
0.032497
0.020334
0.028442
0.032497
0.024388
0.020334
0.024388
0.028442
0.016279
0.012225
0.012225
0.004116
0.004116
0.016279
0.016279
0.024388
0.028442
0.020334
0.032497
0.016279
0.012225
0.016279
0.020334
0.028442
0.024388
0.024388
0.024388
0.016279
0.016279
0.016279
0.020334
0.036551
0.060878
0.056823
0.040606
0.016279
0.008170
0.004116
0.000062
0.000062
-0.003993
-0.008047
-0.012102
-0.028319
-0.016156
-0.008047
0.008170
0.068986
0.032497
-0.226985
-0.308073
-0.174278
-0.044537
-0.024265
-0.032374
-0.024265
-0.028319
-0.024265
-0.012102
0.000062
0.004116
0.028442
0.024388
0.044660
0.036551
0.036551
0.036551
0.028442
0.016279
0.004116
0.004116
0.000062
-0.012102
-0.024265
-0.028319
-0.020210
-0.020210
-0.016156
-0.012102
-0.003993
-0.003993
0.000062
0.008170
-0.003993
0.004116
0.004116
0.000062
-0.003993
0.000062
-0.003993
-0.012102
0.000062
0.000062
0.000062
-0.003993
-0.003993
-0.012102
0.004116
0.016279
0.020334
0.028442
0.024388
0.028442
0.028442
0.036551
0.036551
0.036551
0.032497
0.020334
0.020334
0.020334
0.024388
0.028442
0.028442
0.032497
0.036551
0.032497
0.052769
0.048714
0.040606
0.024388
0.024388
0.020334
0.020334
0.016279
0.020334
0.032497
0.028442
0.048714
0.056823
0.077095
0.068986
0.048714
0.036551
0.012225
0.004116
0.004116
0.000062
0.004116
0.000062
0.000062
-0.008047
0.000062
0.004116
0.016279
0.085204
0.068986
-0.182386
-0.295909
-0.190495
-0.040482
0.004116
0.012225
0.016279
0.012225
0.020334
0.016279
0.024388
0.020334
0.012225
0.012225
0.016279
0.020334
0.020334
0.020334
0.016279
0.008170
0.020334
0.012225
0.012225
0.016279
0.024388
0.028442
0.020334
0.024388
0.028442
0.024388
0.020334
0.024388
0.016279
0.012225
0.000062
0.000062
0.000062
0.004116
0.012225
0.020334
0.016279
0.048714
0.048714
0.056823
0.056823
0.052769
0.044660
0.036551
0.024388
0.028442
0.020334
0.028442
0.028442
0.036551
0.028442
0.024388
0.024388
0.004116
0.008170
0.024388
0.028442
0.016279
0.012225
0.016279
0.016279
0.008170
0.004116
0.008170
0.008170
0.012225
0.012225
0.020334
0.020334
0.032497
0.024388
0.016279
0.000062
-0.003993
-0.008047
0.004116
0.000062
0.012225
0.032497
0.044660
0.032497
0.008170
0.000062
-0.012102
-0.008047
-0.003993
-0.012102
-0.003993
-0.016156
-0.008047
-0.008047
-0.008047
-0.016156
0.052769
0.109530
-0.121570
-0.413487
-0.356725
-0.105353
-0.040482
-0.036428
-0.040482
-0.032374
-0.036428
-0.028319
-0.036428
-0.028319
-0.036428
-0.020210
-0.028319
-0.016156
-0.012102
-0.012102
-0.028319
-0.012102
-0.008047
0.000062
0.004116
-0.024265
-0.016156
-0.012102
-0.020210
-0.024265
-0.012102
-0.008047
-0.003993
-0.008047
-0.016156
-0.012102
-0.016156
-0.012102
-0.012102
0.000062
0.004116
0.004116
0.004116
0.016279
0.016279
0.016279
0.020334
0.024388
0.020334
0.028442
0.024388
0.004116
0.012225
0.012225
0.000062
0.020334
0.016279
0.016279
0.020334
0.020334
0.020334
0.024388
0.016279
0.012225
0.008170
0.008170
0.000062
-0.008047
-0.008047
-0.012102
-0.012102
-0.008047
-0.008047
0.008170
0.000062
0.000062
-0.008047
0.000062
0.004116
0.004116
0.004116
0.004116
-0.003993
0.000062
0.012225
0.028442
0.048714
0.040606
0.032497
0.004116
-0.008047
-0.016156
-0.012102
-0.016156
-0.012102
-0.012102
-0.016156
-0.012102
-0.016156
-0.016156
-0.003993
0.060878
0.093313
-0.243202
-0.474303
-0.312127
-0.064809
-0.020210
0.000062
0.000062
0.000062
-0.016156
-0.003993
-0.012102
-0.012102
-0.020210
-0.016156
-0.016156
-0.008047
-0.012102
-0.003993
-0.008047
-0.012102
-0.016156
-0.016156
-0.012102
-0.020210
-0.016156
-0.020210
-0.020210
-0.012102
-0.020210
-0.024265
-0.020210
-0.016156
-0.008047
-0.012102
-0.020210
-0.032374
-0.008047
-0.008047
-0.008047
-0.003993
-0.008047
-0.003993
-0.003993
0.000062
0.000062
0.008170
0.016279
0.020334
0.024388
0.020334
0.020334
0.016279
0.012225
0.020334
0.012225
0.004116
0.000062
0.004116
0.008170
0.000062
-0.003993
-0.003993
0.004116
0.004116
0.016279
0.016279
0.016279
0.012225
0.016279
0.008170
0.008170
0.008170
0.012225
0.008170
0.004116
0.012225
0.020334
0.016279
0.016279
0.016279
0.016279
0.012225
0.040606
0.052769
0.052769
0.044660
0.028442
-0.003993
-0.012102
-0.008047
-0.003993
-0.016156
-0.003993
-0.003993
-0.003993
0.004116
0.008170
0.008170
0.044660
0.121693
0.048714
-0.312127
-0.417541
-0.210767
-0.048591
-0.016156
-0.003993
0.000062
0.008170
0.016279
0.008170
0.004116
-0.008047
-0.008047
0.004116
-0.003993
-0.003993
-0.012102
-0.008047
-0.003993
0.000062
0.000062
0.000062
-0.020210
-0.012102
-0.012102
-0.024265
-0.016156
-0.020210
-0.008047
0.000062
-0.003993
-0.003993
-0.003993
0.000062
0.000062
0.008170
0.008170
-0.003993
-0.008047
-0.003993
-0.012102
0.000062
0.004116
0.008170
0.008170
0.000062
0.004116
0.004116
0.004116
0.012225
0.004116
-0.003993
0.000062
0.012225
0.016279
0.032497
0.186564
0.364957
0.587949
0.673092
0.336577
-0.044537
-0.206713
-0.182386
-0.121570
-0.052646
-0.052646
-0.056700
-0.056700
-0.068863
-0.064809
-0.060754
-0.040482
-0.003993
-0.016156
-0.052646
-0.072918
-0.060754
-0.056700
-0.056700
-0.072918
-0.081026
-0.097244
-0.093190
-0.109407
-0.125625
-0.117516
-0.129679
-0.121570
-0.117516
-0.109407
-0.101298
-0.072918
-0.040482
-0.020210
0.000062
0.008170
0.028442
0.024388
0.020334
0.024388
0.024388
0.016279
0.020334
0.016279
0.016279
0.020334
0.020334
0.020334
0.024388
0.024388
0.016279
0.024388
0.012225
0.016279
0.020334
0.012225
0.008170
0.012225
0.016279
0.016279
0.020334
0.020334
0.032497
0.028442
0.036551
0.028442
0.028442
0.016279
0.028442
0.016279
0.024388
0.020334
0.024388
0.028442
0.024388
0.028442
0.020334
0.020334
0.016279
0.012225
0.016279
0.008170
0.008170
0.008170
0.012225
0.004116
0.004116
-0.003993
0.004116
-0.008047
0.000062
0.004116
-0.003993
-0.008047
0.000062
0.012225
0.016279
0.024388
0.020334
0.012225
0.012225
0.004116
0.000062
0.000062
-0.003993
-0.003993
0.000062
0.000062
0.000062
0.008170
-0.003993
0.004116
-0.003993
0.008170
0.008170
0.012225
0.008170
0.012225
0.016279
0.036551
0.040606
0.036551
0.016279
0.004116
-0.003993
0.004116
0.000062
-0.003993
-0.003993
0.000062
-0.008047
-0.003993
-0.003993
0.012225
0.056823
0.109530
-0.089135
-0.291855
-0.304018
-0.064809
-0.003993
0.008170
0.016279
0.028442
0.008170
0.012225
0.004116
0.000062
0.020334
0.020334
0.024388
0.024388
0.032497
0.032497
0.020334
0.032497
0.028442
0.024388
0.024388
0.024388
0.008170
0.024388
0.020334
0.020334
0.024388
0.028442
0.024388
0.028442
0.008170
0.008170
0.004116
0.000062
-0.008047
-0.020210
-0.032374
-0.036428
-0.044537
-0.044537
-0.040482
-0.052646
-0.044537
-0.044537
-0.032374
-0.044537
-0.036428
-0.032374
-0.028319
-0.020210
-0.003993
0.012225
0.028442
0.028442
0.154129
0.336577
0.551460
0.725799
0.519024
0.137911
-0.109407
-0.145897
-0.097244
-0.048591
-0.036428
-0.036428
-0.020210
-0.028319
-0.024265
-0.028319
-0.036428
-0.028319
-0.003993
-0.020210
-0.052646
-0.081026
-0.064809
-0.068863
-0.076972
-0.081026
-0.101298
-0.105353
-0.117516
-0.133734
-0.129679
-0.141842
-0.149951
-0.149951
-0.141842
-0.113462
-0.109407
-0.076972
-0.048591
-0.028319
-0.012102
-0.003993
0.000062
0.004116
0.020334
0.020334
0.024388
0.016279
0.020334
0.012225
0.008170
-0.003993
0.000062
0.004116
0.004116
-0.003993
0.000062
0.004116
-0.008047
-0.012102
-0.008047
-0.008047
-0.012102
-0.012102
-0.008047
0.000062
0.004116
0.004116
0.004116
0.020334
0.012225
0.020334
0.024388
0.028442
0.032497
0.032497
0.024388
0.012225
0.008170
0.004116
0.008170
0.008170
0.008170
0.008170
0.012225
0.008170
-0.003993
-0.003993
0.008170
0.008170
0.004116
0.008170
0.012225
0.012225
0.012225
0.004116
-0.003993
-0.003993
-0.012102
-0.016156
-0.020210
-0.016156
-0.016156
-0.016156
-0.020210
-0.012102
-0.016156
-0.012102
-0.003993
0.000062
0.012225
0.008170
0.012225
0.024388
0.024388
0.020334
0.016279
0.012225
0.008170
0.008170
0.012225
0.016279
0.024388
0.040606
0.056823
0.060878
0.073041
0.048714
0.028442
0.024388
0.020334
0.020334
0.008170
0.004116
-0.003993
0.000062
0.004116
0.000062
0.028442
0.085204
0.048714
-0.186441
-0.251311
-0.154006
-0.020210
0.004116
0.012225
0.016279
0.028442
0.032497
0.036551
0.044660
0.056823
0.052769
0.052769
0.048714
0.044660
0.040606
0.036551
0.028442
0.032497
0.036551
0.032497
0.024388
0.052769
0.048714
0.048714
0.048714
0.044660
0.044660
0.048714
0.052769
0.044660
0.044660
0.040606
0.040606
0.040606
0.044660
0.032497
0.024388
0.020334
0.028442
0.024388
0.032497
0.020334
0.024388
0.012225
0.024388
0.028442
0.028442
0.032497
0.036551
0.044660
0.048714
0.060878
0.056823
0.052769
0.056823
0.052769
0.052769
0.048714
0.048714
0.040606
0.040606
0.040606
0.040606
0.036551
0.044660
0.032497
0.032497
0.032497
0.024388
0.016279
0.020334
0.028442
0.032497
0.044660
0.056823
0.068986
0.081150
0.097367
0.068986
0.036551
0.008170
0.000062
0.000062
-0.008047
-0.024265
-0.003993
-0.008047
-0.003993
-0.008047
0.000062
0.012225
0.073041
0.113585
-0.125625
-0.332399
-0.312127
-0.085081
-0.032374
-0.032374
-0.028319
-0.016156
-0.016156
-0.016156
0.000062
-0.016156
-0.020210
-0.016156
-0.016156
-0.016156
-0.020210
-0.012102
-0.008047
0.000062
0.012225
0.012225
0.012225
0.016279
0.008170
-0.016156
-0.020210
-0.032374
-0.032374
-0.044537
-0.052646
-0.048591
-0.048591
-0.040482
-0.036428
-0.028319
-0.020210
-0.016156
-0.016156
-0.012102
0.000062
0.000062
-0.008047
-0.008047
-0.008047
-0.003993
-0.012102
-0.008047
-0.008047
0.000062
0.012225
0.012225
0.004116
0.000062
0.004116
0.004116
0.000062
0.000062
0.000062
0.008170
0.008170
0.016279
0.016279
0.028442
0.004116
-0.003993
-0.008047
-0.016156
-0.016156
-0.008047
-0.012102
-0.003993
-0.003993
0.004116
0.016279
0.028442
0.044660
0.044660
0.036551
0.016279
0.000062
-0.016156
-0.020210
-0.028319
-0.003993
-0.008047
-0.020210
-0.020210
-0.028319
-0.028319
-0.024265
0.004116
0.081150
0.044660
-0.210767
-0.295909
-0.170223
-0.032374
-0.012102
-0.016156
-0.016156
-0.012102
-0.020210
-0.024265
-0.016156
-0.012102
-0.003993
0.000062
-0.003993
0.012225
0.016279
0.024388
0.020334
0.016279
0.008170
0.000062
-0.012102
-0.020210
-0.012102
-0.008047
0.004116
0.012225
0.020334
0.020334
0.016279
0.016279
0.012225
0.008170
0.008170
0.000062
-0.003993
-0.012102
-0.012102
-0.020210
-0.028319
-0.024265
-0.012102
0.000062
0.004116
0.012225
0.008170
0.004116
0.008170
0.000062
0.008170
0.020334
0.024388
0.024388
0.028442
0.028442
0.032497
0.032497
0.016279
0.004116
-0.003993
-0.003993
-0.012102
-0.024265
-0.003993
0.008170
0.024388
0.028442
0.032497
0.028442
0.000062
0.016279
0.012225
-0.003993
-0.012102
-0.016156
-0.012102
-0.003993
0.000062
0.004116
-0.016156
-0.036428
-0.040482
-0.032374
-0.024265
-0.024265
-0.028319
-0.024265
-0.028319
-0.028319
-0.020210
-0.016156
0.040606
0.154129
-0.024265
-0.381052
-0.409433
-0.166169
-0.052646
-0.020210
-0.016156
-0.008047
0.000062
-0.008047
-0.020210
-0.016156
-0.012102
-0.016156
-0.008047
-0.003993
-0.003993
-0.003993
-0.012102
-0.016156
-0.016156
-0.020210
-0.024265
-0.040482
-0.044537
-0.044537
-0.044537
-0.056700
-0.056700
-0.052646
-0.040482
-0.040482
-0.044537
-0.028319
-0.020210
-0.020210
-0.012102
-0.003993
-0.008047
-0.016156
-0.020210
-0.028319
-0.036428
-0.032374
-0.020210
-0.020210
-0.003993
0.004116
0.012225
0.028442
0.036551
0.032497
0.028442
0.036551
0.020334
0.020334
0.016279
0.012225
0.008170
0.008170
0.012225
0.012225
0.020334
0.016279
0.028442
0.024388
0.020334
0.016279
0.016279
0.028442
0.028442
0.028442
0.024388
0.028442
0.020334
0.012225
0.024388
0.020334
0.032497
0.040606
0.028442
0.004116
-0.008047
-0.016156
-0.008047
0.004116
0.004116
0.000062
0.000062
0.004116
0.012225
0.020334
0.012225
0.077095
0.158183
-0.028319
-0.389161
-0.336453
-0.093190
-0.028319
0.000062
0.008170
0.004116
0.012225
0.028442
0.032497
0.020334
0.036551
0.036551
0.036551
0.024388
0.024388
0.012225
0.008170
0.004116
0.000062
0.000062
0.004116
0.004116
0.008170
0.016279
0.008170
0.016279
0.004116
0.012225
0.012225
0.012225
0.000062
0.004116
0.008170
0.000062
-0.008047
0.004116
0.000062
0.000062
0.000062
-0.012102
-0.008047
-0.016156
0.008170
0.012225
0.020334
0.016279
0.012225
0.024388
0.028442
0.032497
0.036551
0.040606
0.028442
0.024388
0.012225
0.000062
0.008170
0.012225
0.016279
0.016279
0.024388
0.020334
0.012225
0.028442
0.024388
0.016279
0.012225
0.000062
-0.008047
-0.008047
0.004116
0.012225
0.012225
0.016279
0.024388
0.040606
0.052769
0.060878
0.064932
0.056823
0.028442
0.016279
0.016279
0.008170
-0.008047
-0.012102
-0.003993
-0.012102
-0.003993
0.000062
0.004116
0.048714
0.150074
0.024388
-0.344562
-0.381052
-0.149951
-0.040482
-0.020210
-0.008047
0.000062
0.008170
0.024388
0.020334
0.036551
0.028442
0.020334
0.024388
0.016279
0.016279
0.020334
0.008170
0.028442
0.020334
0.024388
0.024388
0.016279
0.024388
0.012225
0.016279
0.004116
-0.003993
-0.003993
0.004116
0.000062
0.004116
-0.003993
0.008170
0.004116
0.012225
0.028442
0.032497
0.024388
0.024388
0.012225
0.008170
0.008170
0.008170
0.012225
0.024388
0.020334
0.028442
0.032497
0.024388
0.024388
0.032497
0.032497
0.024388
0.024388
0.036551
0.020334
0.012225
0.004116
0.008170
0.008170
0.008170
0.024388
0.028442
0.020334
0.020334
0.008170
0.012225
0.008170
0.004116
0.008170
0.016279
0.016279
0.012225
0.012225
0.020334
0.024388
0.032497
0.040606
0.040606
0.040606
0.016279
-0.008047
-0.024265
-0.016156
-0.003993
-0.012102
-0.003993
-0.008047
-0.008047
-0.008047
-0.008047
-0.008047
0.068986
0.158183
-0.056700
-0.389161
-0.381052
-0.129679
-0.036428
-0.016156
-0.003993
-0.008047
-0.003993
-0.008047
-0.016156
-0.003993
-0.003993
0.000062
0.004116
0.004116
0.008170
0.008170
0.012225
0.012225
0.012225
0.012225
-0.003993
0.004116
0.000062
-0.012102
-0.012102
-0.012102
-0.008047
-0.008047
-0.012102
-0.012102
-0.003993
-0.008047
-0.003993
-0.008047
-0.008047
-0.003993
0.004116
0.008170
0.008170
0.004116
0.008170
0.012225
0.012225
0.008170
0.008170
0.012225
0.012225
0.016279
0.020334
0.024388
0.024388
0.020334
0.020334
0.020334
0.008170
0.008170
0.004116
0.000062
-0.003993
0.004116
0.000062
-0.008047
0.004116
0.008170
0.004116
0.012225
0.004116
0.012225
0.004116
0.004116
0.008170
0.004116
0.012225
0.012225
0.028442
0.044660
0.048714
0.056823
0.036551
0.012225
-0.012102
-0.020210
-0.016156
-0.012102
-0.008047
-0.008047
-0.003993
-0.008047
-0.003993
0.000062
0.004116
0.064932
0.113585
-0.141842
-0.372943
-0.332399
-0.076972
-0.016156
0.000062
0.000062
0.004116
0.008170
0.000062
0.004116
0.000062
0.004116
0.008170
0.008170
0.024388
0.024388
0.028442
0.024388
0.020334
0.008170
0.024388
0.016279
0.008170
0.008170
0.000062
0.000062
-0.008047
-0.008047
-0.003993
-0.016156
-0.008047
-0.008047
-0.008047
-0.003993
0.004116
0.016279
0.008170
0.012225
0.004116
0.008170
0.004116
-0.012102
0.000062
0.004116
0.008170
0.004116
0.012225
0.016279
0.016279
0.020334
0.024388
0.028442
0.028442
0.032497
0.028442
0.028442
0.016279
0.008170
0.004116
-0.012102
-0.003993
0.004116
-0.008047
-0.008047
0.000062
0.004116
0.000062
0.012225
0.012225
0.012225
0.008170
0.004116
-0.008047
0.000062
-0.003993
0.000062
0.012225
0.020334
0.036551
0.044660
0.032497
0.004116
-0.020210
-0.024265
-0.012102
-0.003993
-0.003993
0.008170
-0.012102
-0.020210
0.000062
-0.012102
0.004116
0.077095
0.121693
-0.149951
-0.397269
-0.324290
-0.068863
-0.016156
0.004116
0.008170
0.008170
0.012225
0.016279
0.008170
0.012225
0.020334
0.012225
0.008170
0.016279
0.012225
0.024388
0.016279
0.016279
0.012225
0.008170
0.004116
0.004116
0.012225
0.004116
0.008170
0.000062
0.004116
-0.003993
0.000062
-0.008047
-0.008047
-0.012102
-0.012102
-0.016156
-0.012102
-0.003993
0.000062
0.016279
0.008170
0.016279
0.008170
0.004116
0.012225
0.008170
0.012225
0.020334
0.020334
0.024388
0.020334
0.024388
0.028442
0.024388
0.016279
0.020334
0.016279
0.008170
0.012225
0.004116
0.004116
0.000062
0.012225
0.004116
0.024388
0.032497
0.032497
0.036551
0.032497
0.020334
0.032497
0.028442
0.028442
0.028442
0.036551
0.036551
0.040606
0.048714
0.064932
0.073041
0.073041
0.068986
0.056823
0.020334
0.004116
-0.012102
0.008170
0.008170
0.012225
0.008170
0.004116
0.004116
0.012225
0.012225
0.044660
0.125748
0.101422
-0.214821
-0.381052
-0.235093
-0.044537
0.000062
0.008170
0.016279
0.016279
0.012225
0.028442
0.032497
0.028442
0.024388
0.020334
0.008170
0.028442
0.028442
0.024388
0.020334
0.012225
0.004116
0.000062
-0.012102
-0.003993
-0.003993
-0.012102
-0.008047
0.000062
0.000062
-0.008047
-0.012102
-0.003993
-0.008047
-0.008047
-0.020210
-0.012102
-0.008047
-0.003993
-0.012102
-0.020210
-0.024265
-0.020210
-0.024265
-0.028319
-0.020210
-0.016156
-0.020210
-0.024265
-0.020210
-0.024265
-0.024265
-0.008047
0.000062
0.004116
0.008170
0.008170
0.000062
0.008170
0.008170
-0.003993
-0.008047
0.004116
-0.008047
-0.003993
-0.003993
-0.003993
0.004116
0.000062
0.000062
0.004116
0.012225
0.008170
0.016279
0.004116
0.008170
0.000062
0.004116
0.008170
0.008170
0.012225
0.032497
0.044660
0.036551
0.032497
0.012225
-0.003993
-0.008047
-0.012102
-0.008047
-0.003993
0.000062
0.000062
0.004116
0.004116
0.004116
0.032497
0.117639
0.044660
-0.291855
-0.376997
-0.178332
-0.036428
-0.012102
0.008170
0.008170
0.012225
0.012225
0.004116
0.008170
-0.003993
0.020334
0.032497
0.024388
0.016279
0.032497
0.024388
0.032497
0.024388
0.032497
0.024388
0.012225
0.016279
0.004116
-0.012102
-0.003993
-0.012102
-0.008047
-0.008047
-0.016156
-0.008047
0.000062
-0.003993
-0.003993
-0.003993
0.000062
0.000062
0.004116
0.000062
0.000062
0.000062
0.000062
0.000062
0.004116
0.004116
0.008170
0.012225
0.008170
0.000062
-0.003993
0.000062
-0.008047
0.000062
0.004116
-0.008047
-0.016156
-0.003993
-0.003993
0.000062
-0.012102
-0.016156
-0.016156
-0.012102
-0.012102
0.004116
-0.003993
-0.003993
-0.003993
-0.008047
0.000062
0.000062
0.000062
0.004116
0.004116
0.000062
0.004116
0.012225
0.012225
0.004116
0.016279
0.028442
0.040606
0.052769
0.044660
0.020334
0.008170
0.008170
0.012225
0.024388
0.020334
0.024388
0.028442
0.016279
0.020334
-0.003993
0.016279
0.073041
0.129802
-0.089135
-0.385106
-0.340508
-0.076972
0.004116
0.008170
0.016279
0.020334
0.020334
0.024388
0.020334
0.032497
0.028442
0.032497
0.036551
0.028442
0.032497
0.024388
0.020334
0.024388
0.016279
0.020334
0.012225
0.016279
0.016279
0.016279
0.016279
0.012225
0.008170
0.004116
-0.008047
-0.012102
-0.012102
-0.008047
-0.008047
-0.008047
-0.012102
-0.003993
-0.003993
-0.003993
-0.003993
-0.003993
-0.003993
-0.016156
-0.012102
-0.003993
0.000062
-0.008047
0.004116
0.008170
0.012225
0.016279
0.004116
0.004116
0.004116
0.008170
0.008170
0.008170
0.008170
0.004116
0.008170
0.012225
0.008170
0.000062
0.000062
-0.008047
-0.016156
-0.020210
-0.020210
-0.020210
-0.016156
-0.012102
-0.012102
-0.016156
-0.003993
-0.003993
0.000062
0.000062
0.008170
0.024388
0.028442
0.044660
0.036551
0.012225
0.000062
-0.012102
-0.003993
-0.003993
0.008170
0.008170
0.012225
0.012225
0.012225
0.004116
0.000062
0.032497
0.125748
-0.012102
-0.312127
-0.356725
-0.178332
-0.036428
-0.016156
-0.008047
-0.012102
0.004116
0.000062
-0.008047
-0.003993
0.000062
0.008170
0.008170
0.008170
0.004116
0.008170
0.008170
0.004116
0.008170
0.000062
-0.003993
0.004116
0.000062
0.000062
0.004116
0.012225
0.008170
0.008170
0.008170
0.004116
0.004116
0.004116
-0.008047
-0.003993
0.000062
0.008170
0.008170
0.012225
0.008170
0.016279
0.016279
0.016279
0.016279
0.020334
0.028442
0.020334
0.024388
0.028442
0.028442
0.032497
0.036551
0.028442
0.020334
0.016279
0.016279
0.024388
0.028442
0.028442
0.036551
0.032497
0.024388
0.032497
0.036551
0.024388
0.028442
0.028442
0.024388
0.012225
0.008170
0.012225
0.012225
0.008170
0.016279
0.020334
0.012225
0.016279
0.016279
0.024388
0.024388
0.028442
0.040606
0.036551
0.028442
0.004116
-0.016156
-0.012102
-0.003993
0.004116
0.016279
0.016279
0.012225
0.012225
0.008170
0.016279
0.028442
0.101422
0.077095
-0.239148
-0.393215
-0.263474
-0.056700
-0.016156
0.008170
-0.008047
-0.012102
0.004116
0.016279
0.016279
0.016279
0.020334
0.020334
0.028442
0.024388
0.024388
0.016279
0.028442
0.020334
0.020334
0.016279
0.012225
0.000062
0.004116
0.000062
-0.003993
-0.008047
-0.008047
0.000062
0.004116
0.008170
0.008170
0.012225
0.008170
0.008170
0.008170
0.008170
0.004116
0.004116
0.008170
0.004116
0.020334
0.020334
0.028442
0.032497
0.032497
0.028442
0.028442
0.028442
0.028442
0.020334
0.020334
0.016279
0.012225
0.024388
0.028442
0.032497
0.032497
0.032497
0.032497
0.028442
0.024388
0.032497
0.020334
0.016279
0.016279
0.016279
0.024388
0.016279
0.016279
0.016279
0.012225
0.028442
0.012225
0.012225
0.008170
0.008170
0.000062
0.004116
0.008170
0.020334
0.032497
0.056823
0.044660
0.008170
-0.003993
-0.008047
-0.028319
-0.020210
-0.016156
-0.012102
-0.003993
0.012225
0.016279
0.016279
0.016279
0.060878
0.150074
0.016279
-0.320236
-0.332399
-0.141842
-0.032374
-0.024265
-0.003993
-0.003993
0.008170
0.004116
-0.003993
0.008170
0.000062
0.008170
0.020334
0.016279
0.020334
0.016279
0.012225
0.024388
0.012225
0.012225
0.020334
0.008170
0.008170
0.012225
0.004116
0.004116
0.000062
0.008170
-0.003993
-0.008047
-0.003993
-0.012102
-0.008047
-0.008047
-0.003993
0.000062
-0.003993
-0.003993
0.004116
-0.003993
0.000062
0.000062
-0.008047
-0.012102
-0.016156
-0.008047
0.004116
0.008170
0.000062
0.024388
0.020334
0.024388
0.036551
0.020334
0.016279
0.004116
-0.012102
-0.008047
0.000062
0.000062
0.000062
0.008170
0.000062
0.004116
0.008170
0.016279
0.020334
0.016279
0.020334
0.012225
0.000062
0.000062
0.000062
0.000062
0.004116
0.012225
0.020334
0.000062
0.012225
0.024388
0.036551
0.044660
0.052769
0.040606
0.016279
0.000062
-0.003993
0.000062
0.000062
0.000062
0.008170
-0.008047
-0.003993
-0.008047
0.000062
0.008170
0.073041
0.089258
-0.182386
-0.356725
-0.255365
-0.060754
-0.024265
-0.020210
-0.020210
-0.012102
-0.016156
-0.008047
-0.003993
0.000062
0.004116
0.004116
0.000062
-0.003993
0.008170
0.008170
0.000062
0.000062
-0.012102
-0.020210
-0.028319
-0.028319
-0.028319
-0.032374
-0.024265
-0.024265
-0.020210
-0.024265
-0.032374
-0.028319
-0.028319
-0.028319
-0.024265
-0.016156
-0.012102
-0.008047
-0.008047
-0.008047
-0.008047
-0.012102
-0.012102
-0.008047
0.000062
0.004116
0.004116
0.008170
0.008170
0.012225
0.016279
0.016279
0.004116
-0.008047
-0.003993
-0.003993
-0.003993
0.000062
-0.003993
-0.003993
-0.008047
-0.003993
-0.008047
-0.003993
-0.003993
-0.003993
0.000062
0.004116
0.012225
0.012225
0.012225
0.012225
0.012225
0.008170
0.000062
0.008170
0.008170
0.004116
0.008170
0.012225
0.012225
0.024388
0.040606
0.060878
0.052769
0.024388
-0.003993
-0.012102
-0.008047
-0.008047
0.000062
0.004116
-0.003993
-0.003993
0.000062
0.008170
0.004116
0.052769
0.146020
0.000062
-0.360780
-0.381052
-0.149951
-0.028319
0.000062
0.004116
0.016279
0.012225
0.024388
0.016279
0.024388
0.024388
0.016279
0.024388
0.028442
0.032497
0.028442
0.028442
0.024388
0.016279
0.012225
0.008170
0.000062
0.004116
-0.008047
-0.012102
-0.016156
-0.020210
-0.008047
-0.016156
-0.012102
-0.016156
-0.024265
-0.020210
-0.003993
-0.003993
0.000062
-0.008047
-0.008047
0.000062
0.004116
-0.003993
-0.003993
-0.012102
-0.012102
-0.020210
-0.020210
-0.016156
-0.008047
-0.003993
0.008170
0.020334
0.024388
0.016279
0.016279
0.008170
0.008170
-0.003993
-0.016156
-0.012102
-0.003993
-0.003993
0.000062
0.008170
0.004116
0.008170
0.004116
0.016279
0.016279
0.012225
0.008170
0.008170
0.016279
0.016279
0.012225
0.012225
0.004116
0.012225
0.012225
0.036551
0.052769
0.056823
0.048714
0.028442
0.008170
-0.003993
0.008170
-0.003993
0.004116
0.008170
0.004116
0.004116
-0.003993
-0.012102
-0.003993
0.040606
0.113585
0.016279
-0.247257
-0.291855
-0.121570
-0.024265
0.004116
-0.003993
-0.003993
0.000062
0.004116
0.008170
0.008170
0.008170
0.016279
0.016279
0.028442
0.016279
0.020334
0.020334
0.020334
0.024388
0.024388
0.016279
0.004116
0.012225
0.004116
0.012225
0.000062
0.000062
0.000062
-0.003993
0.008170
0.000062
-0.003993
-0.008047
0.000062
-0.003993
0.000062
-0.003993
0.008170
0.012225
0.016279
0.024388
0.020334
0.020334
0.012225
0.028442
0.020334
0.024388
0.024388
0.024388
0.024388
0.024388
0.024388
0.008170
0.000062
0.008170
0.012225
0.012225
0.020334
0.024388
0.028442
0.024388
0.024388
0.028442
0.016279
0.020334
-0.003993
0.000062
-0.003993
-0.012102
-0.016156
-0.012102
-0.008047
-0.003993
-0.008047
-0.003993
-0.003993
-0.008047
-0.003993
0.000062
-0.003993
0.012225
0.020334
0.012225
-0.012102
-0.024265
-0.016156
-0.012102
-0.012102
-0.003993
-0.008047
-0.008047
-0.003993
-0.003993
-0.008047
0.008170
0.068986
0.121693
-0.141842
-0.389161
-0.324290
-0.068863
-0.016156
0.004116
0.004116
0.024388
0.020334
0.012225
0.004116
0.008170
0.012225
0.008170
0.008170
0.012225
0.012225
0.008170
0.000062
0.004116
0.008170
0.008170
0.008170
0.004116
0.004116
0.008170
0.004116
0.004116
0.000062
-0.003993
0.000062
-0.012102
-0.020210
-0.024265
-0.020210
-0.016156
-0.016156
-0.008047
-0.003993
0.000062
0.000062
-0.016156
0.000062
0.000062
0.024388
0.032497
0.028442
0.020334
0.012225
0.008170
0.008170
0.016279
0.016279
0.012225
0.008170
-0.008047
0.004116
0.008170
0.000062
-0.003993
-0.012102
-0.003993
-0.012102
-0.008047
-0.008047
-0.012102
-0.008047
0.008170
0.008170
0.016279
0.020334
0.020334
0.012225
0.012225
0.012225
0.012225
0.008170
0.008170
0.004116
-0.008047
0.004116
0.016279
0.036551
0.052769
0.028442
-0.008047
-0.008047
0.008170
0.024388
0.032497
0.020334
0.012225
-0.008047
0.004116
0.000062
0.000062
0.008170
0.044660
0.154129
-0.003993
-0.344562
-0.385106
-0.141842
-0.044537
-0.016156
-0.008047
-0.008047
0.004116
0.000062
0.000062
0.004116
0.016279
0.012225
0.028442
0.020334
0.016279
0.008170
0.012225
0.028442
0.032497
0.028442
0.028442
0.024388
0.028442
0.028442
0.012225
0.024388
0.012225
0.012225
0.016279
0.004116
-0.003993
0.012225
0.024388
0.020334
0.012225
0.024388
0.020334
0.028442
0.040606
0.044660
0.048714
0.048714
0.044660
0.044660
0.040606
0.036551
0.028442
0.028442
0.028442
0.036551
0.040606
0.040606
0.040606
0.040606
0.044660
0.040606
0.040606
0.036551
0.040606
0.028442
0.028442
0.024388
0.020334
0.020334
0.016279
0.016279
0.008170
0.008170
0.008170
0.016279
0.016279
0.016279
0.016279
0.020334
0.020334
0.012225
0.008170
0.008170
0.000062
0.008170
0.020334
0.040606
0.044660
0.032497
0.008170
-0.008047
-0.008047
-0.016156
-0.012102
-0.020210
-0.020210
-0.008047
-0.003993
0.000062
0.004116
0.008170
0.052769
0.129802
-0.020210
-0.356725
-0.336453
-0.105353
-0.012102
-0.003993
0.000062
0.000062
0.004116
0.000062
-0.012102
-0.003993
-0.003993
-0.008047
0.008170
0.000062
0.016279
0.016279
0.024388
0.020334
0.028442
0.012225
0.012225
0.004116
0.008170
0.004116
0.000062
-0.003993
0.000062
0.000062
-0.003993
0.008170
0.012225
0.004116
0.000062
-0.008047
0.004116
0.008170
0.012225
0.016279
0.016279
0.008170
0.000062
0.000062
0.000062
-0.003993
0.004116
0.004116
0.020334
0.032497
0.036551
0.020334
0.020334
0.004116
0.004116
0.000062
-0.003993
0.004116
0.008170
0.008170
0.012225
0.008170
0.008170
0.008170
0.008170
0.012225
0.020334
0.020334
0.012225
0.012225
0.000062
0.012225
0.012225
0.012225
0.016279
0.008170
0.004116
-0.003993
-0.003993
0.004116
0.008170
0.016279
0.044660
0.040606
0.032497
0.008170
0.008170
-0.003993
-0.008047
0.000062
-0.008047
-0.008047
-0.012102
-0.016156
-0.020210
-0.008047
0.012225
0.077095
0.121693
-0.141842
-0.348617
-0.271583
-0.072918
-0.016156
-0.008047
-0.012102
-0.012102
-0.012102
0.000062
0.004116
0.008170
-0.003993
0.004116
0.012225
0.008170
0.004116
0.012225
0.008170
0.016279
0.016279
0.012225
0.012225
0.012225
0.012225
0.012225
0.004116
0.008170
0.000062
-0.008047
-0.008047
-0.012102
-0.012102
-0.003993
-0.008047
-0.012102
-0.012102
-0.012102
-0.012102
-0.016156
-0.012102
-0.012102
-0.008047
0.000062
-0.003993
-0.008047
0.004116
0.008170
-0.003993
0.008170
0.016279
0.016279
0.016279
0.016279
0.016279
0.008170
0.008170
0.008170
0.012225
0.012225
0.012225
0.012225
0.012225
0.016279
0.016279
0.012225
0.012225
0.016279
0.016279
0.016279
0.008170
0.008170
0.016279
0.012225
0.012225
0.012225
0.016279
0.012225
0.008170
0.020334
0.028442
0.040606
0.052769
0.036551
0.020334
0.004116
0.004116
-0.012102
0.008170
0.012225
0.008170
0.004116
0.008170
0.012225
0.020334
0.036551
0.097367
0.105476
-0.162114
-0.320236
-0.255365
-0.048591
-0.016156
-0.008047
-0.003993
0.000062
0.004116
0.000062
0.000062
-0.003993
0.004116
0.008170
0.004116
0.012225
0.008170
0.004116
0.000062
0.000062
0.016279
0.016279
0.012225
0.000062
-0.003993
-0.012102
-0.012102
-0.012102
-0.008047
-0.003993
-0.003993
-0.008047
-0.008047
-0.008047
-0.012102
-0.003993
-0.016156
0.000062
0.000062
0.000062
0.004116
0.012225
0.004116
0.012225
0.008170
0.004116
0.008170
0.016279
0.016279
0.020334
0.016279
0.020334
0.012225
0.016279
0.004116
0.012225
0.016279
0.020334
0.012225
0.020334
0.020334
0.024388
0.012225
0.020334
0.020334
0.020334
0.012225
0.012225
0.024388
0.020334
0.016279
0.008170
0.012225
0.008170
0.000062
0.000062
0.000062
-0.008047
-0.008047
0.012225
0.024388
0.040606
0.032497
0.016279
-0.003993
-0.008047
-0.012102
-0.003993
-0.008047
-0.003993
-0.003993
0.000062
-0.008047
-0.016156
-0.016156
0.032497
0.146020
-0.003993
-0.364834
-0.454031
-0.206713
-0.048591
-0.016156
-0.008047
0.008170
0.008170
0.020334
0.024388
0.024388
0.020334
0.020334
0.020334
0.012225
0.012225
0.024388
0.020334
0.020334
0.020334
0.016279
-0.003993
0.012225
0.012225
0.008170
0.016279
-0.008047
0.000062
-0.008047
0.000062
-0.003993
-0.003993
-0.008047
-0.020210
-0.003993
0.000062
0.000062
0.008170
0.012225
0.012225
0.024388
0.016279
0.020334
0.016279
0.000062
0.008170
0.004116
0.012225
0.016279
0.012225
0.000062
0.012225
0.008170
0.012225
0.020334
0.020334
0.032497
0.028442
0.028442
0.016279
0.016279
0.004116
0.012225
0.012225
0.008170
0.008170
0.008170
0.004116
0.000062
0.000062
-0.003993
-0.012102
-0.008047
0.000062
0.000062
-0.012102
-0.003993
0.000062
0.008170
0.024388
0.040606
0.052769
0.036551
0.008170
-0.008047
-0.016156
-0.012102
-0.008047
-0.003993
0.000062
-0.008047
-0.028319
-0.012102
-0.003993
-0.003993
0.040606
0.146020
-0.012102
-0.385106
-0.417541
-0.162114
-0.032374
-0.016156
0.000062
-0.003993
0.008170
0.000062
-0.003993
0.000062
0.004116
-0.003993
0.000062
-0.008047
0.000062
0.008170
0.012225
0.020334
0.016279
0.012225
0.008170
0.008170
0.012225
0.004116
0.008170
0.000062
0.000062
0.000062
0.012225
0.012225
0.016279
0.016279
0.012225
0.012225
0.004116
0.016279
0.016279
0.016279
0.020334
0.016279
0.012225
0.020334
0.020334
0.020334
0.016279
0.008170
0.012225
0.008170
0.012225
0.016279
0.012225
0.004116
0.008170
0.000062
0.008170
0.016279
0.008170
0.012225
0.012225
0.016279
0.012225
0.012225
0.008170
0.000062
0.004116
0.000062
0.004116
0.016279
0.024388
0.020334
0.020334
0.016279
0.012225
0.012225
0.000062
0.004116
0.004116
0.000062
0.008170
0.020334
0.028442
0.040606
0.020334
-0.016156
-0.024265
-0.028319
-0.032374
-0.024265
0.008170
0.008170
0.008170
-0.003993
-0.012102
-0.008047
-0.020210
0.024388
0.113585
0.008170
-0.336453
-0.344562
-0.125625
-0.016156
-0.008047
-0.003993
0.000062
0.000062
0.008170
0.008170
0.000062
0.004116
0.012225
0.020334
0.012225
0.016279
0.020334
0.020334
0.020334
0.016279
0.000062
0.008170
0.000062
0.000062
-0.003993
-0.012102
-0.008047
0.000062
0.008170
0.020334
0.020334
0.024388
0.020334
0.020334
0.012225
0.016279
0.008170
0.012225
0.008170
0.000062
0.016279
0.012225
0.012225
0.012225
0.016279
0.008170
0.016279
0.024388
0.020334
0.016279
0.028442
0.020334
0.024388
0.028442
0.020334
0.024388
0.032497
0.024388
0.020334
0.024388
0.028442
0.016279
0.016279
0.016279
0.004116
0.012225
0.008170
0.000062
-0.003993
0.000062
-0.003993
0.004116
0.008170
0.004116
0.000062
0.000062
-0.008047
-0.008047
-0.008047
0.008170
0.024388
0.024388
0.044660
0.032497
0.008170
0.000062
0.008170
0.000062
-0.016156
-0.016156
-0.020210
-0.016156
-0.024265
-0.012102
0.000062
0.024388
0.093313
0.077095
-0.190495
-0.316181
-0.186441
-0.028319
0.000062
0.000062
0.000062
0.008170
-0.003993
0.016279
0.020334
0.016279
0.004116
0.008170
0.008170
0.000062
0.000062
0.004116
0.004116
0.016279
0.012225
0.012225
0.012225
0.008170
0.000062
0.000062
-0.012102
-0.003993
-0.008047
-0.003993
-0.008047
0.004116
-0.008047
0.000062
0.000062
0.008170
0.020334
0.020334
0.020334
0.024388
0.024388
0.032497
0.036551
0.036551
0.036551
0.032497
0.032497
0.032497
0.036551
0.036551
0.032497
0.032497
0.036551
0.036551
0.020334
0.024388
0.020334
0.016279
0.020334
0.004116
0.004116
-0.003993
0.008170
0.004116
0.008170
0.008170
0.012225
0.016279
0.008170
0.008170
0.008170
0.016279
0.008170
0.016279
0.016279
0.008170
0.008170
0.004116
0.008170
0.024388
0.040606
0.056823
0.048714
0.032497
0.000062
0.000062
-0.008047
-0.008047
-0.003993
0.008170
0.008170
0.004116
0.008170
0.008170
0.008170
0.060878
0.125748
-0.012102
-0.287801
-0.312127
-0.105353
-0.020210
0.000062
0.000062
0.008170
0.000062
0.008170
0.008170
0.012225
0.008170
0.016279
0.012225
0.012225
0.008170
0.004116
0.012225
0.016279
0.016279
0.020334
0.024388
0.012225
0.000062
0.000062
0.000062
-0.016156
-0.020210
-0.012102
-0.012102
-0.024265
-0.016156
-0.024265
-0.008047
-0.016156
-0.003993
-0.003993
0.000062
0.004116
0.008170
0.012225
0.004116
0.008170
0.008170
0.004116
0.008170
0.024388
0.016279
0.020334
0.016279
0.016279
0.004116
0.020334
0.020334
0.024388
0.020334
0.012225
0.016279
0.020334
0.016279
0.024388
0.024388
0.024388
0.032497
0.016279
0.016279
0.004116
0.008170
0.004116
0.020334
0.028442
0.020334
0.016279
0.008170
0.016279
0.012225
0.012225
0.008170
0.008170
0.008170
0.008170
0.028442
0.048714
0.060878
0.052769
0.008170
-0.012102
-0.016156
-0.008047
-0.003993
0.004116
0.004116
-0.012102
-0.008047
-0.012102
-0.003993
0.004116
0.052769
0.101422
-0.044537
-0.312127
-0.267529
-0.068863
-0.016156
-0.012102
-0.003993
-0.003993
0.000062
-0.003993
-0.003993
0.000062
-0.008047
-0.028319
0.000062
0.000062
0.000062
0.000062
-0.003993
0.004116
-0.003993
-0.008047
-0.012102
-0.032374
-0.016156
-0.016156
-0.003993
-0.016156
-0.008047
0.000062
-0.012102
-0.020210
-0.008047
-0.003993
-0.008047
0.008170
0.004116
0.008170
-0.003993
0.004116
-0.003993
0.012225
-0.008047
0.004116
0.008170
0.000062
0.004116
0.008170
0.020334
0.020334
0.016279
0.012225
0.012225
0.016279
0.008170
0.004116
-0.008047
0.000062
0.004116
-0.008047
-0.003993
-0.003993
-0.008047
-0.008047
-0.003993
0.012225
-0.003993
-0.012102
-0.003993
0.000062
-0.003993
0.000062
0.004116
0.000062
0.004116
-0.008047
-0.012102
0.000062
0.004116
0.008170
0.012225
0.016279
0.012225
0.024388
0.040606
0.024388
0.000062
-0.012102
-0.003993
-0.012102
0.004116
-0.003993
-0.012102
-0.012102
-0.016156
-0.016156
-0.003993
0.012225
0.044660
0.093313
-0.012102
-0.312127
-0.295909
-0.089135
-0.032374
-0.016156
0.000062
0.004116
0.004116
0.008170
0.004116
0.004116
0.012225
0.008170
0.016279
0.008170
0.012225
0.020334
0.012225
0.000062
0.008170
0.004116
-0.008047
-0.012102
-0.008047
-0.012102
-0.020210
-0.016156
-0.020210
-0.028319
-0.016156
-0.016156
-0.003993
-0.024265
-0.008047
-0.012102
-0.003993
0.016279
0.012225
0.004116
0.004116
0.004116
0.016279
0.024388
0.020334
0.020334
0.016279
0.016279
0.008170
0.012225
0.016279
0.008170
0.020334
0.020334
0.020334
0.012225
0.012225
0.008170
0.004116
0.004116
0.004116
0.004116
0.004116
0.012225
0.016279
0.008170
0.012225
0.008170
0.008170
0.008170
0.000062
0.008170
0.004116
-0.003993
0.000062
0.000062
0.012225
-0.008047
0.004116
0.008170
0.004116
0.012225
0.028442
0.036551
0.024388
0.000062
-0.024265
-0.016156
-0.012102
-0.012102
0.000062
-0.003993
-0.003993
0.004116
0.000062
-0.003993
0.004116
0.040606
0.085204
-0.052646
-0.295909
-0.271583
-0.064809
-0.012102
-0.003993
0.004116
0.008170
0.008170
0.016279
0.020334
0.016279
0.020334
0.020334
0.016279
0.020334
0.016279
0.004116
0.008170
0.016279
0.008170
0.004116
0.008170
0.004116
0.004116
0.004116
-0.008047
-0.008047
-0.008047
-0.008047
-0.008047
-0.003993
-0.003993
0.000062
0.000062
-0.003993
0.004116
0.000062
-0.003993
0.000062
-0.003993
-0.012102
-0.012102
-0.008047
-0.008047
-0.008047
0.008170
0.012225
0.008170
0.016279
0.016279
0.016279
0.016279
0.016279
0.012225
0.016279
0.016279
0.012225
0.016279
0.008170
0.000062
0.004116
0.004116
0.004116
-0.003993
0.000062
0.000062
0.008170
0.000062
0.004116
0.004116
0.004116
0.012225
0.004116
0.008170
0.016279
0.016279
0.012225
0.012225
0.028442
0.040606
0.060878
0.048714
0.044660
0.028442
0.016279
0.016279
0.012225
0.008170
0.028442
0.024388
0.020334
0.016279
0.008170
0.016279
0.028442
0.060878
0.093313
-0.101298
-0.259420
-0.214821
-0.020210
0.012225
0.012225
0.016279
0.020334
0.016279
0.016279
0.028442
0.036551
0.036551
0.036551
0.040606
0.040606
0.036551
0.040606
0.036551
0.044660
0.028442
0.016279
0.020334
0.016279
0.008170
0.008170
0.004116
0.000062
0.000062
-0.008047
0.004116
-0.003993
0.008170
0.012225
0.004116
0.008170
0.012225
0.016279
0.016279
0.024388
0.012225
0.024388
0.032497
0.028442
0.020334
0.032497
0.028442
0.032497
0.032497
0.028442
0.028442
0.032497
0.040606
0.040606
0.044660
0.028442
0.032497
0.020334
0.024388
0.024388
0.028442
0.020334
0.020334
0.008170
0.016279
0.020334
0.020334
0.016279
0.024388
0.020334
0.016279
0.020334
0.024388
0.020334
0.020334
0.016279
0.020334
0.020334
0.016279
0.024388
0.040606
0.040606
0.024388
-0.003993
-0.016156
-0.016156
-0.016156
-0.016156
-0.008047
-0.012102
-0.024265
-0.012102
-0.016156
-0.020210
-0.020210
0.044660
0.089258
-0.044537
-0.324290
-0.291855
-0.081026
-0.016156
-0.016156
-0.020210
-0.008047
-0.003993
0.000062
-0.008047
0.004116
0.004116
-0.003993
0.008170
-0.008047
0.000062
0.000062
-0.008047
-0.016156
-0.008047
-0.012102
-0.016156
-0.012102
-0.016156
-0.012102
-0.020210
-0.020210
-0.020210
-0.020210
-0.016156
-0.008047
-0.016156
-0.024265
-0.016156
-0.016156
-0.012102
-0.008047
-0.003993
-0.012102
0.004116
0.004116
0.008170
0.004116
0.016279
0.012225
0.004116
0.004116
0.012225
0.008170
0.012225
0.012225
0.012225
0.020334
0.020334
0.020334
0.016279
0.016279
0.020334
0.024388
0.004116
0.020334
0.020334
0.020334
0.016279
0.020334
0.024388
0.020334
0.024388
0.012225
-0.003993
0.020334
0.016279
0.008170
0.004116
0.012225
0.004116
0.000062
0.008170
0.008170
0.020334
0.040606
0.036551
0.040606
0.036551
0.008170
0.004116
-0.008047
-0.008047
-0.012102
-0.016156
-0.016156
-0.008047
-0.012102
-0.008047
0.000062
0.008170
0.056823
0.024388
-0.239148
-0.316181
-0.162114
-0.032374
-0.012102
-0.012102
-0.012102
-0.016156
-0.024265
-0.024265
-0.024265
-0.016156
-0.008047
-0.008047
0.000062
-0.003993
-0.003993
-0.008047
-0.008047
-0.008047
-0.028319
-0.020210
-0.024265
-0.032374
-0.036428
-0.032374
-0.044537
-0.036428
-0.036428
-0.032374
-0.036428
-0.028319
-0.028319
-0.032374
-0.028319
-0.028319
-0.020210
-0.020210
-0.012102
-0.008047
-0.012102
-0.012102
-0.016156
-0.012102
-0.012102
-0.020210
-0.024265
-0.028319
-0.024265
-0.024265
-0.028319
-0.032374
-0.012102
-0.016156
-0.008047
-0.008047
-0.008047
-0.012102
-0.012102
-0.016156
-0.008047
0.000062
-0.003993
0.004116
-0.008047
0.000062
0.008170
0.012225
0.016279
-0.008047
0.008170
0.016279
0.008170
0.016279
0.012225
0.000062
0.008170
0.000062
-0.016156
-0.008047
0.000062
0.008170
0.016279
0.028442
0.024388
0.012225
-0.016156
-0.020210
-0.016156
-0.016156
-0.008047
-0.003993
-0.003993
-0.008047
-0.012102
-0.016156
-0.024265
-0.003993
0.032497
-0.008047
-0.251311
-0.279692
-0.141842
-0.064809
-0.048591
-0.024265
-0.028319
-0.028319
-0.008047
-0.008047
-0.008047
0.000062
0.000062
0.000062
-0.003993
0.008170
0.004116
0.004116
0.020334
0.020334
0.020334
0.024388
0.008170
0.004116
0.008170
0.000062
0.004116
0.000062
0.000062
0.000062
0.000062
0.004116
0.000062
-0.003993
0.008170
0.008170
0.012225
0.000062
0.012225
0.016279
0.020334
0.016279
0.020334
0.020334
0.020334
0.020334
0.028442
0.032497
0.024388
0.032497
0.036551
0.040606
0.028442
0.036551
0.028442
0.032497
0.036551
0.024388
0.028442
0.016279
0.020334
0.024388
0.024388
0.028442
0.020334
0.024388
0.024388
0.024388
0.020334
0.020334
0.020334
0.020334
0.016279
0.024388
0.020334
0.024388
0.020334
0.012225
0.012225
0.020334
0.028442
0.040606
0.044660
0.036551
0.004116
-0.003993
-0.012102
-0.012102
-0.008047
-0.008047
-0.003993
-0.003993
-0.008047
-0.012102
-0.024265
-0.008047
0.028442
0.081150
-0.036428
-0.287801
-0.275637
-0.085081
-0.020210
-0.008047
0.004116
0.000062
0.000062
0.012225
0.016279
0.004116
0.012225
0.008170
0.016279
0.016279
0.012225
0.004116
0.012225
0.012225
0.008170
0.008170
0.004116
-0.008047
0.000062
0.000062
-0.008047
-0.008047
-0.016156
-0.012102
-0.016156
-0.016156
-0.012102
-0.020210
-0.012102
-0.012102
-0.020210
-0.003993
0.000062
0.012225
0.004116
0.008170
0.008170
0.012225
0.024388
0.028442
0.024388
0.024388
0.032497
0.028442
0.036551
0.028442
0.024388
0.008170
0.012225
0.016279
0.008170
0.004116
0.012225
0.016279
0.016279
0.016279
0.016279
0.012225
0.016279
0.020334
0.020334
0.032497
0.036551
0.036551
0.036551
0.044660
0.036551
0.036551
0.028442
0.032497
0.024388
0.024388
0.024388
0.044660
0.064932
0.064932
0.056823
0.036551
0.008170
0.008170
0.012225
0.016279
0.012225
0.012225
0.012225
0.004116
0.000062
0.012225
0.004116
0.044660
0.089258
-0.016156
-0.251311
-0.243202
-0.068863
-0.012102
-0.020210
-0.003993
0.000062
0.000062
0.000062
-0.003993
-0.003993
0.004116
0.004116
0.012225
0.008170
0.004116
0.000062
0.004116
0.000062
-0.003993
-0.003993
-0.012102
-0.012102
-0.016156
-0.012102
-0.020210
-0.024265
-0.016156
-0.028319
-0.020210
-0.024265
-0.028319
-0.016156
-0.016156
-0.020210
-0.020210
-0.008047
0.008170
0.000062
-0.008047
-0.003993
-0.008047
-0.008047
0.000062
-0.003993
-0.012102
0.000062
0.008170
0.008170
0.012225
0.012225
0.008170
0.016279
0.016279
0.020334
0.016279
0.012225
0.024388
0.020334
0.024388
0.024388
0.016279
0.012225
0.016279
0.016279
0.008170
0.004116
0.004116
0.004116
0.000062
0.000062
-0.003993
0.000062
-0.012102
-0.008047
-0.012102
0.000062
-0.012102
-0.003993
0.000062
0.012225
0.032497
0.040606
0.032497
0.008170
-0.008047
-0.016156
-0.012102
-0.012102
-0.008047
-0.008047
-0.016156
-0.012102
-0.020210
-0.012102
-0.008047
0.032497
0.073041
-0.089135
-0.259420
-0.198604
-0.032374
-0.020210
-0.008047
-0.008047
0.000062
-0.003993
0.000062
0.004116
0.008170
0.004116
0.008170
0.004116
0.004116
0.000062
0.000062
0.004116
0.004116
0.004116
0.004116
0.004116
0.000062
-0.003993
0.000062
0.004116
0.008170
0.004116
0.016279
0.016279
-0.003993
0.000062
0.000062
0.000062
-0.003993
0.008170
0.016279
0.016279
0.028442
0.016279
0.020334
0.028442
0.016279
0.028442
0.024388
0.024388
0.028442
0.032497
0.036551
0.036551
0.036551
0.040606
0.040606
0.044660
0.036551
0.028442
0.020334
0.020334
0.016279
0.000062
0.004116
0.008170
0.008170
0.008170
0.008170
0.004116
0.008170
0.012225
0.008170
0.004116
0.008170
-0.003993
0.008170
0.004116
0.000062
0.012225
0.016279
0.012225
0.016279
0.012225
0.032497
0.036551
0.048714
0.032497
0.016279
-0.003993
-0.024265
-0.020210
-0.024265
-0.012102
-0.003993
-0.012102
-0.003993
-0.003993
-0.008047
-0.003993
0.016279
0.064932
0.044660
-0.182386
-0.239148
-0.117516
-0.012102
-0.003993
-0.008047
-0.003993
0.004116
0.012225
0.004116
0.012225
0.008170
0.000062
0.008170
-0.008047
0.004116
0.008170
0.000062
0.004116
0.000062
-0.003993
0.004116
-0.008047
0.000062
-0.003993
-0.012102
-0.012102
-0.016156
-0.008047
-0.024265
-0.024265
-0.028319
-0.028319
-0.028319
-0.024265
-0.020210
-0.020210
-0.020210
-0.024265
-0.008047
-0.012102
-0.012102
-0.008047
-0.008047
-0.003993
-0.012102
0.000062
0.000062
-0.008047
0.000062
-0.003993
0.008170
0.008170
0.004116
0.004116
0.008170
0.000062
-0.003993
-0.012102
-0.016156
-0.008047
-0.008047
-0.008047
0.000062
-0.003993
0.004116
0.004116
0.000062
0.008170
0.000062
0.008170
0.012225
0.012225
0.012225
0.016279
0.020334
0.016279
0.016279
0.020334
0.020334
0.024388
0.036551
0.048714
0.056823
0.048714
0.036551
0.016279
0.008170
0.008170
0.012225
0.024388
0.024388
0.020334
0.020334
0.016279
0.008170
0.016279
0.052769
0.077095
-0.020210
-0.263474
-0.206713
-0.024265
0.012225
0.008170
0.020334
0.012225
0.012225
0.016279
0.016279
0.020334
0.020334
0.016279
0.020334
0.024388
0.036551
0.032497
0.032497
0.040606
0.032497
0.032497
0.028442
0.016279
0.020334
0.020334
0.020334
0.016279
0.012225
0.012225
0.020334
0.016279
0.024388
0.020334
0.020334
0.016279
0.016279
0.024388
0.020334
0.024388
0.020334
0.024388
0.024388
0.020334
0.020334
0.020334
0.016279
0.024388
0.024388
0.024388
0.028442
0.024388
0.016279
0.028442
0.024388
0.028442
0.028442
0.024388
0.024388
0.028442
0.020334
0.020334
0.008170
0.012225
0.012225
0.012225
0.020334
0.012225
0.008170
0.016279
0.004116
0.004116
0.004116
0.004116
0.012225
0.008170
0.016279
0.004116
0.008170
0.012225
0.024388
0.036551
0.028442
0.016279
0.004116
-0.008047
-0.016156
-0.008047
-0.003993
-0.003993
-0.012102
-0.016156
-0.008047
-0.012102
-0.012102
-0.012102
0.036551
0.073041
-0.093190
-0.283746
-0.259420
-0.068863
-0.036428
-0.024265
-0.020210
-0.016156
-0.016156
-0.020210
-0.016156
-0.012102
-0.016156
-0.008047
-0.003993
0.004116
-0.008047
0.008170
0.012225
0.012225
0.008170
0.008170
0.008170
0.004116
0.004116
-0.008047
-0.012102
-0.012102
-0.012102
-0.012102
-0.012102
-0.012102
-0.016156
-0.016156
-0.016156
-0.008047
-0.008047
-0.012102
0.000062
0.004116
-0.003993
0.004116
0.020334
0.016279
0.020334
0.016279
0.020334
0.004116
0.008170
0.020334
0.016279
0.032497
0.016279
0.028442
0.012225
0.012225
0.008170
0.008170
0.012225
0.012225
0.000062
0.016279
0.004116
0.008170
0.012225
0.012225
0.008170
0.012225
0.012225
0.008170
0.004116
0.008170
0.008170
0.020334
0.016279
0.020334
0.016279
0.012225
0.012225
0.040606
0.048714
0.060878
0.056823
0.040606
0.016279
0.008170
0.012225
0.016279
0.016279
0.016279
0.004116
0.016279
-0.003993
0.016279
0.004116
0.028442
0.081150
0.004116
-0.251311
-0.279692
-0.109407
-0.008047
-0.003993
0.012225
0.012225
0.008170
-0.003993
0.004116
0.004116
0.000062
-0.003993
0.000062
-0.003993
0.008170
0.004116
0.012225
0.008170
0.008170
0.000062
-0.003993
-0.012102
-0.016156
-0.028319
-0.036428
-0.040482
-0.040482
-0.052646
-0.040482
-0.036428
-0.032374
-0.032374
-0.028319
-0.040482
-0.040482
-0.032374
-0.028319
-0.024265
-0.024265
-0.032374
-0.012102
-0.016156
-0.008047
-0.020210
0.004116
0.000062
0.004116
0.004116
0.008170
0.008170
0.008170
0.012225
0.004116
0.008170
0.000062
0.004116
0.008170
0.004116
0.004116
-0.003993
0.000062
0.008170
0.000062
0.004116
0.000062
0.004116
0.004116
0.008170
0.008170
0.004116
0.000062
0.000062
0.004116
0.004116
0.004116
0.008170
0.020334
0.016279
0.020334
0.036551
0.044660
0.056823
0.040606
0.020334
-0.003993
-0.008047
0.000062
0.000062
0.000062
0.004116
0.000062
0.000062
-0.016156
-0.016156
-0.016156
0.024388
0.064932
-0.040482
-0.340508
-0.287801
-0.085081
-0.032374
-0.024265
-0.024265
-0.016156
-0.024265
-0.012102
0.000062
0.008170
0.008170
0.008170
0.004116
0.000062
0.012225
0.012225
0.012225
0.012225
0.008170
-0.003993
-0.003993
-0.024265
-0.016156
-0.020210
-0.020210
-0.024265
-0.024265
-0.020210
-0.020210
-0.020210
-0.020210
-0.032374
-0.028319
-0.028319
-0.024265
-0.020210
-0.020210
-0.012102
-0.008047
-0.008047
0.000062
-0.003993
0.000062
0.000062
-0.003993
0.016279
0.012225
0.008170
0.008170
0.000062
0.004116
-0.003993
-0.003993
0.008170
0.000062
-0.003993
-0.008047
-0.003993
-0.008047
-0.003993
-0.003993
0.000062
0.008170
0.012225
0.012225
0.012225
0.020334
0.020334
0.032497
0.032497
0.028442
0.032497
0.036551
0.016279
0.028442
0.032497
0.020334
0.020334
0.016279
0.024388
0.032497
0.044660
0.052769
0.028442
0.004116
-0.016156
-0.003993
0.000062
0.012225
0.016279
0.016279
0.024388
0.020334
0.020334
0.024388
0.028442
0.073041
0.101422
-0.028319
-0.259420
-0.186441
-0.012102
0.004116
0.008170
0.020334
0.016279
0.012225
0.008170
0.016279
0.020334
0.024388
0.000062
0.020334
0.020334
0.028442
0.020334
0.012225
0.016279
-0.003993
0.000062
-0.008047
-0.016156
-0.012102
-0.016156
-0.008047
-0.024265
-0.028319
-0.028319
-0.024265
-0.024265
-0.008047
-0.020210
-0.008047
-0.012102
-0.008047
-0.008047
-0.016156
-0.012102
-0.012102
-0.003993
0.004116
0.004116
0.000062
0.000062
0.000062
0.004116
0.004116
0.000062
-0.003993
-0.008047
0.004116
-0.003993
0.004116
0.004116
0.012225
0.008170
0.020334
0.020334
0.008170
0.008170
0.004116
0.008170
0.008170
-0.008047
0.000062
-0.012102
-0.012102
0.000062
0.000062
0.004116
0.004116
0.004116
0.012225
0.008170
0.016279
0.020334
0.016279
0.032497
0.040606
0.052769
0.064932
0.056823
0.040606
0.012225
0.008170
0.004116
0.000062
0.004116
0.004116
0.004116
0.000062
0.008170
0.008170
0.016279
0.064932
0.109530
-0.044537
-0.247257
-0.222930
-0.028319
0.012225
0.020334
0.024388
0.032497
0.032497
0.036551
0.036551
0.032497
0.040606
0.044660
0.040606
0.028442
0.036551
0.028442
0.020334
0.028442
0.020334
0.032497
0.020334
0.028442
0.024388
0.028442
0.020334
0.024388
0.028442
0.028442
0.036551
0.032497
0.032497
0.028442
0.028442
0.028442
0.036551
0.028442
0.028442
0.040606
0.036551
0.036551
0.036551
0.040606
0.048714
0.048714
0.052769
0.056823
0.060878
0.048714
0.056823
0.068986
0.077095
0.060878
0.048714
0.028442
0.016279
0.004116
-0.003993
-0.016156
-0.016156
-0.024265
-0.024265
-0.036428
-0.024265
-0.028319
-0.028319
-0.032374
-0.024265
-0.028319
-0.020210
-0.016156
-0.008047
-0.012102
-0.003993
-0.008047
-0.008047
-0.003993
0.000062
0.012225
0.024388
0.020334
-0.012102
-0.024265
-0.028319
-0.028319
-0.028319
-0.028319
-0.024265
-0.024265
-0.024265
-0.016156
-0.016156
-0.012102
0.064932
0.150074
-0.105353
-0.445922
-0.445922
-0.145897
-0.056700
-0.028319
-0.020210
-0.012102
-0.003993
-0.032374
-0.028319
-0.032374
-0.028319
-0.020210
-0.016156
-0.012102
-0.012102
-0.012102
-0.012102
-0.012102
-0.012102
-0.028319
-0.012102
-0.016156
-0.036428
-0.044537
-0.044537
-0.044537
-0.044537
-0.044537
-0.048591
-0.044537
-0.044537
-0.044537
-0.048591
-0.040482
-0.032374
-0.028319
-0.040482
-0.020210
-0.020210
-0.020210
-0.016156
-0.012102
-0.012102
-0.012102
-0.012102
-0.016156
-0.008047
0.000062
0.000062
0.004116
-0.003993
-0.008047
-0.008047
-0.008047
-0.016156
-0.008047
-0.003993
0.004116
-0.008047
-0.008047
-0.003993
0.000062
0.000062
-0.003993
-0.016156
0.000062
-0.008047
-0.016156
-0.003993
-0.003993
-0.003993
0.004116
0.004116
0.004116
0.000062
0.000062
-0.012102
0.008170
0.032497
0.040606
0.048714
0.048714
0.024388
0.008170
0.008170
0.000062
0.008170
0.008170
0.004116
0.004116
0.000062
0.000062
0.000062
0.008170
0.085204
0.186564
-0.076972
-0.482412
-0.437813
-0.129679
-0.016156
0.008170
0.012225
0.028442
0.028442
0.024388
0.028442
0.048714
0.036551
0.036551
0.040606
0.040606
0.044660
0.048714
0.044660
0.048714
0.048714
0.048714
0.044660
0.036551
0.044660
0.044660
0.048714
0.048714
0.036551
0.044660
0.036551
0.032497
0.032497
0.024388
0.016279
0.032497
0.020334
0.036551
0.032497
0.032497
0.036551
0.044660
0.044660
0.044660
0.028442
0.036551
0.036551
0.044660
0.040606
0.048714
0.048714
0.040606
0.028442
0.040606
0.036551
0.032497
0.040606
0.044660
0.040606
0.028442
0.036551
0.020334
0.028442
0.028442
0.028442
0.032497
0.032497
0.024388
0.020334
0.024388
0.024388
0.016279
0.012225
0.012225
0.008170
0.020334
0.012225
0.008170
0.020334
0.020334
0.024388
0.036551
0.048714
0.048714
0.040606
0.008170
-0.016156
-0.016156
-0.020210
-0.016156
-0.012102
-0.012102
-0.012102
-0.024265
-0.024265
-0.032374
-0.012102
0.060878
0.089258
-0.206713
-0.486466
-0.360780
-0.089135
-0.044537
-0.028319
-0.012102
-0.008047
-0.012102
-0.008047
-0.003993
-0.003993
0.012225
0.016279
0.016279
0.016279
0.016279
0.012225
-0.008047
-0.016156
-0.020210
-0.020210
-0.012102
-0.012102
-0.016156
-0.003993
-0.012102
-0.012102
-0.003993
-0.003993
-0.008047
-0.016156
-0.008047
0.000062
0.012225
0.016279
0.032497
0.036551
0.036551
0.032497
0.036551
0.024388
0.032497
0.028442
0.032497
0.036551
0.040606
0.040606
0.036551
0.028442
0.024388
0.032497
0.028442
0.044660
0.044660
0.048714
0.044660
0.040606
0.036551
0.044660
0.048714
0.048714
0.044660
0.040606
0.028442
0.040606
0.048714
0.048714
0.052769
0.044660
0.036551
0.040606
0.036551
0.032497
0.028442
0.032497
0.028442
0.024388
0.028442
0.024388
0.028442
0.040606
0.036551
0.056823
0.060878
0.044660
0.024388
0.000062
-0.003993
0.012225
0.012225
0.028442
0.032497
0.032497
0.012225
0.012225
0.020334
0.028442
0.089258
0.048714
-0.226985
-0.372943
-0.235093
-0.060754
-0.028319
-0.020210
-0.020210
0.004116
0.008170
0.008170
0.004116
-0.012102
-0.024265
-0.008047
-0.003993
-0.052646
-0.085081
-0.024265
-0.016156
-0.048591
-0.052646
-0.044537
-0.052646
-0.052646
-0.044537
-0.032374
-0.016156
-0.032374
-0.024265
-0.040482
-0.044537
-0.040482
-0.040482
-0.044537
-0.044537
-0.052646
-0.044537
-0.040482
-0.040482
-0.036428
-0.028319
-0.008047
-0.012102
-0.008047
-0.003993
-0.008047
-0.003993
0.012225
0.024388
0.016279
0.016279
0.016279
0.004116
0.000062
0.020334
0.024388
0.004116
-0.008047
-0.003993
0.004116
0.012225
0.016279
0.020334
0.032497
0.028442
0.024388
0.028442
0.012225
0.004116
0.004116
0.016279
0.024388
0.024388
0.036551
0.024388
0.020334
0.032497
0.040606
0.048714
0.060878
0.077095
0.077095
0.056823
0.032497
0.016279
0.016279
0.028442
0.032497
0.024388
0.024388
0.020334
-0.003993
0.012225
0.020334
0.028442
0.068986
0.141965
0.036551
-0.214821
-0.271583
-0.101298
0.008170
0.028442
0.024388
0.028442
0.028442
0.028442
0.036551
0.040606
0.032497
0.028442
0.024388
0.032497
0.032497
0.036551
0.028442
0.024388
0.016279
0.008170
-0.012102
0.004116
0.008170
0.008170
0.020334
0.024388
0.024388
0.012225
0.000062
-0.003993
-0.003993
-0.003993
-0.008047
-0.008047
0.000062
-0.008047
-0.003993
0.008170
0.008170
0.012225
0.016279
0.012225
0.016279
0.016279
0.012225
0.012225
0.008170
0.004116
0.012225
0.016279
0.008170
0.000062
-0.003993
0.008170
0.012225
0.000062
0.000062
0.012225
0.008170
0.016279
0.004116
0.000062
0.000062
-0.003993
-0.008047
0.000062
-0.012102
-0.008047
-0.008047
0.000062
-0.003993
-0.008047
-0.003993
-0.016156
-0.008047
-0.008047
-0.003993
0.008170
0.028442
0.044660
0.040606
0.016279
-0.003993
-0.016156
-0.016156
-0.016156
-0.016156
-0.003993
-0.016156
-0.012102
-0.012102
-0.008047
-0.012102
0.008170
0.089258
0.068986
-0.202658
-0.348617
-0.243202
-0.060754
-0.028319
-0.008047
-0.003993
0.000062
0.012225
0.016279
0.016279
0.012225
0.012225
0.004116
0.024388
0.020334
0.020334
0.036551
0.032497
0.028442
0.020334
0.004116
-0.003993
-0.003993
-0.003993
-0.008047
-0.003993
-0.003993
-0.008047
0.000062
-0.003993
0.000062
-0.008047
0.000062
-0.003993
-0.003993
-0.003993
0.000062
0.000062
0.000062
0.008170
0.016279
0.000062
0.028442
0.028442
0.028442
0.032497
0.016279
0.028442
0.024388
0.016279
0.016279
0.008170
0.012225
0.016279
0.012225
0.016279
0.000062
0.000062
-0.003993
0.000062
0.000062
0.004116
-0.003993
0.000062
0.000062
-0.003993
-0.003993
-0.016156
-0.008047
-0.012102
-0.012102
-0.003993
-0.012102
-0.016156
-0.003993
-0.003993
-0.012102
-0.003993
0.000062
0.008170
0.020334
0.032497
0.020334
-0.008047
-0.028319
-0.028319
-0.040482
-0.032374
-0.024265
-0.020210
-0.032374
-0.028319
-0.024265
-0.036428
-0.032374
0.004116
0.077095
-0.060754
-0.401324
-0.385106
-0.162114
-0.056700
-0.048591
-0.036428
-0.028319
-0.028319
-0.028319
-0.036428
-0.028319
-0.024265
-0.028319
-0.024265
-0.028319
-0.020210
-0.012102
-0.012102
-0.008047
-0.012102
-0.003993
0.004116
0.004116
0.012225
0.004116
0.000062
-0.003993
-0.003993
0.004116
-0.008047
-0.003993
-0.008047
-0.020210
-0.012102
0.000062
0.000062
-0.003993
-0.003993
0.000062
0.000062
0.004116
0.008170
0.000062
-0.008047
0.008170
0.004116
0.000062
0.000062
-0.003993
-0.003993
0.000062
0.000062
0.004116
-0.003993
0.000062
0.000062
0.004116
0.008170
0.012225
0.008170
0.012225
0.016279
0.008170
0.004116
0.008170
0.004116
0.000062
-0.008047
-0.012102
-0.012102
-0.003993
-0.016156
-0.024265
-0.028319
-0.020210
-0.003993
-0.003993
-0.003993
0.000062
0.012225
0.016279
0.000062
-0.003993
-0.020210
-0.036428
-0.056700
-0.036428
-0.008047
0.008170
0.036551
0.040606
0.052769
0.052769
0.044660
0.044660
0.064932
0.121693
0.052769
-0.226985
-0.308073
-0.141842
-0.024265
0.008170
0.020334
0.036551
0.044660
0.060878
0.060878
0.073041
0.064932
0.068986
0.064932
0.052769
0.028442
0.020334
0.020334
0.020334
0.024388
0.012225
-0.003993
-0.008047
-0.003993
-0.003993
-0.008047
0.004116
0.004116
0.000062
0.000062
0.000062
0.008170
0.008170
0.004116
0.004116
-0.008047
0.000062
0.004116
0.008170
-0.003993
-0.003993
0.008170
0.012225
0.024388
0.008170
-0.003993
0.008170
0.012225
0.008170
0.004116
0.004116
0.016279
0.028442
0.032497
0.032497
0.036551
0.036551
0.028442
0.032497
0.024388
0.012225
0.004116
-0.003993
0.008170
0.004116
0.004116
0.000062
0.000062
-0.003993
0.012225
0.000062
0.000062
-0.003993
-0.012102
-0.008047
-0.016156
-0.012102
-0.016156
-0.012102
-0.012102
-0.003993
0.020334
0.028442
0.044660
0.016279
0.000062
-0.012102
-0.024265
-0.028319
-0.028319
-0.024265
-0.016156
-0.003993
0.008170
0.008170
0.012225
0.024388
0.077095
0.125748
-0.068863
-0.283746
-0.243202
-0.024265
0.016279
0.020334
0.036551
0.032497
0.036551
0.048714
0.040606
0.044660
0.044660
0.036551
0.028442
0.024388
0.016279
0.012225
0.016279
0.020334
0.016279
0.020334
0.012225
0.012225
0.008170
0.004116
0.004116
0.004116
0.004116
-0.008047
0.008170
0.004116
0.008170
0.008170
0.016279
0.020334
0.032497
0.024388
0.016279
0.024388
0.028442
0.024388
0.016279
0.028442
0.036551
0.044660
0.040606
0.052769
0.060878
0.064932
0.073041
0.064932
0.052769
0.044660
0.044660
0.036551
0.032497
0.032497
0.036551
0.040606
0.032497
0.036551
0.036551
0.044660
0.044660
0.048714
