-1.31072
-1.57332
-1.84015
-2.09428
-2.25099
-2.31452
-2.3357
-2.31452
-2.27217
-2.22134
-2.15781
-2.09005
-2.03922
-2.0011
-1.96298
-1.92063
-1.87404
-1.81474
-1.74697
-1.67921
-1.64532
-1.62415
-1.60297
-1.59026
-1.57756
-1.56909
-1.56485
-1.56909
-1.57756
-1.58603
-1.60297
-1.62415
-1.64956
-1.67497
-1.71309
-1.78509
-1.85286
-1.88251
-1.90369
-1.91639
-1.9291
-1.93757
-1.94604
-1.95451
-1.95875
-1.96722
-1.97145
-1.97145
-1.96298
-1.95451
-1.94604
-1.93757
-1.92486
-1.91216
-1.89945
-1.88251
-1.87404
-1.8698
-1.86133
-1.8571
-1.84439
-1.83168
-1.81898
-1.80204
-1.78933
-1.77239
-1.75968
-1.74697
-1.7385
-1.73003
-1.72156
-1.71733
-1.70886
-1.70038
-1.69191
-1.68344
-1.67497
-1.66227
-1.64956
-1.63685
-1.61991
-1.61144
-1.59873
-1.59026
-1.57756
-1.56485
-1.54367
-1.51826
-1.48438
-1.44626
-1.40814
-1.37849
-1.34461
-1.3192
-1.30225
-1.28955
-1.28108
-1.27261
-1.26413
-1.25143
-1.23872
-1.22178
-1.20484
-1.18366
-1.16672
-1.14554
-1.13284
-1.11589
-1.10319
-1.09048
-1.07354
-1.0566
-1.03542
-1.01424
-0.993067
-0.97189
-0.950713
-0.933771
-0.921064
-0.908358
-0.899887
-0.882945
-0.866004
-0.83212
-0.798237
-0.768589
-0.738941
-0.705057
-0.662703
-0.607642
-0.54411
-0.497521
-0.463637
-0.433989
-0.412812
-0.404341
-0.400106
-0.39587
-0.391635
-0.383164
-0.374693
-0.374693
-0.387399
-0.412812
-0.438225
-0.450931
-0.463637
-0.472108
-0.484814
-0.497521
-0.505992
-0.518698
-0.522933
-0.527169
-0.527169
-0.522933
-0.518698
-0.510227
-0.493285
-0.476344
-0.459402
-0.433989
-0.408576
-0.378928
-0.315397
-0.167157
0.0742634
0.366509
0.688402
1.00182
1.26866
1.3576
1.41266
1.40419
1.26866
1.06112
0.785817
0.472394
0.150501
-0.116331
-0.213746
-0.230688
-0.24763
-0.260336
-0.268807
-0.273043
-0.273043
-0.273043
-0.268807
-0.260336
-0.251865
-0.239159
-0.222217
-0.209511
-0.20104
-0.192569
-0.188334
-0.179863
-0.175627
-0.171392
-0.167157
-0.167157
-0.162921
-0.162921
-0.162921
-0.158686
-0.158686
-0.158686
-0.158686
-0.162921
-0.162921
-0.167157
-0.167157
-0.162921
-0.162921
-0.162921
-0.158686
-0.158686
-0.15445
-0.145979
-0.141744
-0.137508
-0.129038
-0.124802
-0.120567
-0.112096
-0.103625
-0.0951541
-0.0866833
-0.0697415
-0.035858
-0.0019745
0.0361444
0.0700279
0.099676
0.129324
0.158972
0.18862
0.218268
0.243681
0.269093
0.294506
0.319919
0.358038
0.413098
0.446982
0.463924
0.472394
0.480865
0.493572
0.497807
0.506278
0.510513
0.510513
0.510513
0.506278
0.497807
0.480865
0.459688
0.434276
0.400392
0.358038
0.277564
0.197091
0.129324
0.0742634
0.0234381
-0.0231517
-0.0400934
-0.0527998
-0.0655061
-0.0782124
-0.0866833
-0.0951541
-0.103625
-0.112096
-0.116331
-0.116331
-0.120567
-0.120567
-0.120567
-0.120567
-0.120567
-0.120567
-0.120567
-0.120567
-0.116331
-0.112096
-0.103625
-0.0909187
-0.0782124
-0.0655061
-0.0527998
-0.0400934
-0.0316226
-0.0189162
-0.00620994
0.00226094
0.0107318
0.0192027
0.0234381
0.0276736
0.031909
0.0361444
0.0403799
0.0488507
0.0573216
0.0615571
0.0657925
0.0657925
0.0700279
0.0700279
0.0700279
0.0700279
0.0657925
0.0615571
0.0573216
0.0488507
0.0488507
0.0488507
0.0488507
0.0530862
0.0573216
0.0573216
0.0615571
0.0615571
0.0657925
0.0700279
0.0742634
0.0827342
0.0869697
0.0912051
0.0912051
0.0954406
0.099676
0.103911
0.112382
0.112382
0.112382
0.112382
0.108147
0.103911
0.099676
0.0954406
0.0912051
0.0827342
0.0784988
0.0784988
0.0742634
0.0700279
0.0700279
0.0700279
0.0700279
0.0700279
0.0742634
0.0742634
0.0827342
0.0912051
0.103911
0.120853
0.137795
0.154737
0.18862
0.209797
0.209797
0.175914
0.133559
0.0954406
0.0530862
0.0149672
-0.0231517
-0.0485643
-0.0739769
-0.0909187
-0.10786
-0.120567
-0.129038
-0.137508
-0.145979
-0.15445
-0.162921
-0.171392
-0.175627
-0.175627
-0.179863
-0.188334
-0.192569
-0.213746
-0.251865
-0.205276
-0.0527998
0.214033
0.561339
0.921351
1.2263
1.42537
1.49737
1.50161
1.46349
1.36607
1.13312
0.806994
0.438511
0.0954406
-0.179863
-0.311161
-0.353516
-0.370458
-0.391635
-0.404341
-0.412812
-0.421283
-0.429754
-0.433989
-0.438225
-0.44246
-0.446695
-0.44246
-0.438225
-0.433989
-0.433989
-0.433989
-0.429754
-0.429754
-0.429754
-0.425518
-0.425518
-0.421283
-0.412812
-0.404341
-0.39587
-0.391635
-0.383164
-0.374693
-0.366222
-0.357751
-0.34928
-0.340809
-0.332339
-0.323868
-0.29422
-0.264572
-0.234924
-0.213746
-0.192569
-0.179863
-0.167157
-0.15445
-0.141744
-0.129038
-0.120567
-0.112096
-0.0993896
-0.0866833
-0.0739769
-0.0570352
-0.0400934
-0.0273871
-0.00620994
0.0192027
0.0530862
0.0827342
0.116618
0.150501
0.184385
0.222504
0.260623
0.298742
0.332625
0.362273
0.38345
0.404628
0.425805
0.446982
0.463924
0.472394
0.47663
0.480865
0.480865
0.480865
0.472394
0.459688
0.438511
0.421569
0.400392
0.379215
0.349567
0.298742
0.247916
0.197091
0.146266
0.099676
0.0530862
0.0107318
-0.0231517
-0.0485643
-0.0697415
-0.0739769
-0.0782124
-0.0824478
-0.0866833
-0.0951541
-0.0993896
-0.103625
-0.112096
-0.116331
-0.124802
-0.129038
-0.137508
-0.137508
-0.141744
-0.141744
-0.145979
-0.145979
-0.145979
-0.145979
-0.145979
-0.145979
-0.145979
-0.145979
-0.145979
-0.145979
-0.145979
-0.145979
-0.145979
-0.145979
-0.141744
-0.137508
-0.129038
-0.120567
-0.116331
-0.112096
-0.10786
-0.103625
-0.0993896
-0.0951541
-0.0951541
-0.0951541
-0.0993896
-0.0993896
-0.0993896
-0.0993896
-0.0993896
-0.0993896
-0.0993896
-0.0993896
-0.103625
-0.103625
-0.10786
-0.112096
-0.116331
-0.120567
-0.124802
-0.124802
-0.133273
-0.137508
-0.141744
-0.141744
-0.141744
-0.141744
-0.141744
-0.141744
-0.141744
-0.141744
-0.137508
-0.137508
-0.137508
-0.137508
-0.137508
-0.137508
-0.133273
-0.133273
-0.137508
-0.137508
-0.145979
-0.150215
-0.15445
-0.158686
-0.158686
-0.162921
-0.162921
-0.167157
-0.167157
-0.162921
-0.158686
-0.145979
-0.129038
-0.10786
-0.0866833
-0.0655061
-0.0485643
-0.0273871
0.00649637
0.0403799
0.0657925
0.0657925
0.0488507
0.0192027
-0.0146808
-0.0400934
-0.0739769
-0.112096
-0.145979
-0.184098
-0.217982
-0.243394
-0.264572
-0.285749
-0.302691
-0.315397
-0.328103
-0.336574
-0.340809
-0.345045
-0.345045
-0.345045
-0.340809
-0.332339
-0.323868
-0.311161
-0.29422
-0.273043
-0.251865
-0.129038
0.0657925
0.38345
0.845113
1.41266
1.99715
2.42493
2.48846
2.37411
1.86585
1.19242
0.527455
-0.00620994
-0.353516
-0.497521
-0.522933
-0.54411
-0.561052
-0.577994
-0.5907
-0.599171
-0.607642
-0.611878
-0.616113
-0.620348
-0.616113
-0.607642
-0.599171
-0.586465
-0.577994
-0.569523
-0.561052
-0.552581
-0.548346
-0.54411
-0.539875
-0.539875
-0.53564
-0.531404
-0.527169
-0.514462
-0.501756
-0.48905
-0.476344
-0.459402
-0.446695
-0.433989
-0.421283
-0.412812
-0.408576
-0.400106
-0.391635
-0.378928
-0.370458
-0.357751
-0.34928
-0.336574
-0.328103
-0.315397
-0.302691
-0.29422
-0.285749
-0.281513
-0.273043
-0.264572
-0.251865
-0.234924
-0.213746
-0.179863
-0.10786
-0.0485643
-0.0019745
0.0488507
0.0912051
0.129324
0.171678
0.214033
0.252152
0.286035
0.315683
0.345331
0.370744
0.391921
0.404628
0.421569
0.434276
0.446982
0.455453
0.463924
0.463924
0.459688
0.451217
0.434276
0.413098
0.391921
0.362273
0.324154
0.260623
0.197091
0.133559
0.0869697
0.0488507
0.0149672
-0.0189162
-0.0443289
-0.0655061
-0.0824478
-0.0909187
-0.0993896
-0.10786
-0.116331
-0.120567
-0.129038
-0.129038
-0.133273
-0.133273
-0.137508
-0.137508
-0.141744
-0.137508
-0.137508
-0.133273
-0.124802
-0.120567
-0.112096
-0.103625
-0.0993896
-0.0909187
-0.0824478
-0.0739769
-0.0655061
-0.0570352
-0.0485643
-0.0443289
-0.0443289
-0.0400934
-0.035858
-0.035858
-0.035858
-0.0316226
-0.0316226
-0.0316226
-0.0316226
-0.0273871
-0.0273871
-0.0273871
-0.0231517
-0.0189162
-0.0189162
-0.0189162
-0.0189162
-0.0189162
-0.0231517
-0.0189162
-0.0189162
-0.0189162
-0.0189162
-0.0189162
-0.0231517
-0.0231517
-0.0231517
-0.0189162
-0.0189162
-0.0146808
-0.0146808
-0.0104454
-0.00620994
-0.0019745
0.00226094
0.00226094
0.00649637
0.0107318
0.0149672
0.0192027
0.0234381
0.0234381
0.0276736
0.031909
0.0361444
0.0403799
0.0446153
0.0488507
0.0488507
0.0530862
0.0573216
0.0615571
0.0657925
0.0700279
0.0742634
0.0784988
0.0869697
0.0912051
0.0954406
0.099676
0.099676
0.103911
0.112382
0.120853
0.129324
0.133559
0.14203
0.146266
0.154737
0.163208
0.171678
0.184385
0.192856
0.201326
0.214033
0.230975
0.243681
0.260623
0.277564
0.294506
0.307212
0.324154
0.341096
0.358038
0.379215
0.396157
0.421569
0.459688
0.497807
0.514749
0.497807
0.459688
0.413098
0.366509
0.298742
0.256387
0.230975
0.218268
0.205562
0.192856
0.180149
0.171678
0.163208
0.158972
0.154737
0.154737
0.154737
0.154737
0.158972
0.167443
0.175914
0.192856
0.209797
0.226739
0.252152
0.349567
0.565574
0.891703
1.32372
1.84044
2.38258
2.84
2.97554
2.91624
2.46305
1.77267
1.05265
0.472394
0.197091
0.120853
0.0784988
0.0446153
0.0149672
-0.00620994
-0.0316226
-0.0570352
-0.0951541
-0.129038
-0.141744
-0.129038
-0.103625
-0.0739769
-0.0612706
-0.0527998
-0.0485643
-0.0443289
-0.0443289
-0.0400934
-0.035858
-0.0316226
-0.0273871
-0.0189162
-0.0189162
-0.0189162
-0.0231517
-0.0273871
-0.0316226
-0.0316226
-0.035858
-0.035858
-0.0400934
-0.0443289
-0.0443289
-0.0485643
-0.0485643
-0.0485643
-0.0485643
-0.0443289
-0.0400934
-0.035858
-0.0316226
-0.0316226
-0.0273871
-0.0231517
-0.0146808
-0.00620994
0.00226094
0.0149672
0.031909
0.0530862
0.0784988
0.108147
0.133559
0.158972
0.184385
0.209797
0.239445
0.273329
0.311448
0.349567
0.391921
0.425805
0.451217
0.47663
0.497807
0.514749
0.531691
0.544397
0.552868
0.561339
0.561339
0.561339
0.557103
0.548632
0.540161
0.531691
0.518984
0.502043
0.489336
0.463924
0.413098
0.366509
0.332625
0.273329
0.18862
0.120853
0.0657925
0.0107318
-0.0146808
-0.0316226
-0.0443289
-0.0527998
-0.0612706
-0.0697415
-0.0782124
-0.0866833
-0.0909187
-0.0909187
-0.0909187
-0.0909187
-0.0909187
-0.0909187
-0.0909187
-0.0909187
-0.0866833
-0.0824478
-0.0824478
-0.0824478
-0.0824478
-0.0824478
-0.0824478
-0.0824478
-0.0824478
-0.0824478
-0.0824478
-0.0866833
-0.0824478
-0.0824478
-0.0782124
-0.0739769
-0.0739769
-0.0739769
-0.0697415
-0.0655061
-0.0655061
-0.0612706
-0.0612706
-0.0612706
-0.0612706
-0.0570352
-0.0570352
-0.0612706
-0.0612706
-0.0655061
-0.0697415
-0.0655061
-0.0655061
-0.0612706
-0.0612706
-0.0612706
-0.0612706
-0.0612706
-0.0612706
-0.0612706
-0.0612706
-0.0655061
-0.0697415
-0.0739769
-0.0739769
-0.0782124
-0.0739769
-0.0739769
-0.0739769
-0.0739769
-0.0697415
-0.0697415
-0.0655061
-0.0655061
-0.0655061
-0.0655061
-0.0655061
-0.0612706
-0.0612706
-0.0612706
-0.0612706
-0.0655061
-0.0655061
-0.0655061
-0.0697415
-0.0697415
-0.0739769
-0.0782124
-0.0824478
-0.0909187
-0.0951541
-0.0951541
-0.0993896
-0.112096
-0.124802
-0.137508
-0.145979
-0.145979
-0.145979
-0.145979
-0.145979
-0.145979
-0.145979
-0.145979
-0.141744
-0.133273
-0.129038
-0.129038
-0.124802
-0.120567
-0.116331
-0.10786
-0.103625
-0.103625
-0.103625
-0.10786
-0.10786
-0.10786
-0.103625
-0.0993896
-0.0951541
-0.0909187
-0.0866833
-0.0739769
-0.0570352
-0.035858
-0.0231517
-0.00620994
0.00649637
0.0192027
0.0361444
0.0615571
0.0827342
0.0954406
0.0954406
0.0827342
0.0700279
0.0530862
0.031909
0.0107318
-0.0189162
-0.0485643
-0.0824478
-0.116331
-0.141744
-0.171392
-0.196805
-0.226453
-0.251865
-0.277278
-0.306926
-0.340809
-0.378928
-0.417047
-0.459402
-0.505992
-0.522933
-0.531404
-0.539875
-0.552581
-0.484814
-0.285749
0.0276736
0.472394
1.03571
1.64985
2.20045
2.48423
2.47999
2.1581
1.4889
0.709579
0.0192027
-0.446695
-0.603407
-0.586465
-0.484814
-0.425518
-0.425518
-0.480579
-0.527169
-0.569523
-0.599171
-0.599171
-0.586465
-0.569523
-0.556817
-0.54411
-0.539875
-0.53564
-0.531404
-0.527169
-0.518698
-0.510227
-0.497521
-0.48905
-0.480579
-0.472108
-0.467873
-0.463637
-0.459402
-0.455166
-0.450931
-0.44246
-0.438225
-0.429754
-0.425518
-0.417047
-0.412812
-0.408576
-0.400106
-0.391635
-0.387399
-0.383164
-0.374693
-0.366222
-0.353516
-0.340809
-0.319632
-0.285749
-0.251865
-0.226453
-0.20104
-0.179863
-0.15445
-0.133273
-0.10786
-0.0866833
-0.0612706
-0.0316226
-0.0019745
0.0361444
0.0742634
0.103911
0.125089
0.146266
0.175914
0.209797
0.247916
0.277564
0.307212
0.332625
0.353802
0.366509
0.379215
0.387686
0.396157
0.404628
0.413098
0.43004
0.442746
0.446982
0.438511
0.421569
0.400392
0.374979
0.345331
0.311448
0.273329
0.214033
0.133559
0.0784988
0.0488507
0.0192027
-0.0019745
-0.0231517
-0.0527998
-0.112096
-0.141744
-0.15445
-0.162921
-0.171392
-0.179863
-0.184098
-0.188334
-0.188334
-0.192569
-0.192569
-0.196805
-0.196805
-0.192569
-0.192569
-0.188334
-0.184098
-0.179863
-0.175627
-0.167157
-0.158686
-0.145979
-0.137508
-0.129038
-0.120567
-0.103625
-0.0909187
-0.0739769
-0.0655061
-0.0570352
-0.0485643
-0.0443289
-0.035858
-0.0316226
-0.0273871
-0.0273871
-0.0316226
-0.0485643
-0.0655061
-0.0866833
-0.112096
-0.133273
-0.150215
-0.162921
-0.171392
-0.179863
-0.184098
-0.192569
-0.196805
-0.20104
-0.20104
-0.20104
-0.20104
-0.196805
-0.192569
-0.188334
-0.175627
-0.162921
-0.15445
-0.145979
-0.137508
-0.133273
-0.133273
-0.129038
-0.129038
-0.124802
-0.124802
-0.120567
-0.120567
-0.116331
-0.116331
-0.116331
-0.112096
-0.10786
-0.10786
-0.10786
-0.10786
-0.10786
-0.10786
-0.10786
-0.103625
-0.0993896
-0.0951541
-0.0951541
-0.0909187
-0.0866833
-0.0782124
-0.0697415
-0.0655061
-0.0570352
-0.0527998
-0.0443289
-0.035858
-0.0273871
-0.0189162
-0.00620994
0.00226094
0.00649637
0.0107318
0.0149672
0.0234381
0.0276736
0.031909
0.0361444
0.0361444
0.0403799
0.0446153
0.0488507
0.0573216
0.0657925
0.0742634
0.0784988
0.0869697
0.099676
0.116618
0.150501
0.222504
0.277564
0.307212
0.324154
0.32839
0.311448
0.286035
0.252152
0.209797
0.171678
0.133559
0.0954406
0.0573216
0.0361444
0.0192027
0.00226094
-0.0146808
-0.0316226
-0.0527998
-0.0655061
-0.0824478
-0.0951541
-0.112096
-0.124802
-0.129038
-0.129038
-0.129038
-0.124802
-0.116331
-0.103625
-0.0570352
0.133559
0.451217
0.908645
1.47196
2.04374
2.46305
2.59011
2.35716
1.81079
1.11195
0.451217
-0.0231517
-0.15445
-0.184098
-0.209511
-0.222217
-0.230688
-0.234924
-0.234924
-0.234924
-0.230688
-0.226453
-0.217982
-0.213746
-0.20104
-0.192569
-0.188334
-0.188334
-0.184098
-0.184098
-0.179863
-0.179863
-0.175627
-0.171392
-0.167157
-0.162921
-0.158686
-0.15445
-0.15445
-0.150215
-0.150215
-0.150215
-0.145979
-0.141744
-0.133273
-0.129038
-0.120567
-0.112096
-0.103625
-0.0909187
-0.0782124
-0.0655061
-0.0527998
-0.0443289
-0.0316226
-0.0273871
-0.0189162
-0.0104454
-0.0019745
0.00649637
0.0192027
0.0361444
0.0530862
0.0742634
0.0912051
0.108147
0.116618
0.129324
0.146266
0.163208
0.175914
0.192856
0.214033
0.260623
0.332625
0.379215
0.417334
0.472394
0.497807
0.514749
0.527455
0.540161
0.548632
0.557103
0.561339
0.561339
0.561339
0.557103
0.552868
0.544397
0.535926
0.52322
0.506278
0.480865
0.438511
0.400392
0.349567
0.286035
0.230975
0.18862
0.154737
0.116618
0.0827342
0.0446153
0.0107318
-0.0189162
-0.0527998
-0.0782124
-0.0993896
-0.116331
-0.133273
-0.145979
-0.158686
-0.167157
-0.175627
-0.184098
-0.188334
-0.188334
-0.179863
-0.171392
-0.167157
-0.162921
-0.15445
-0.150215
-0.145979
-0.137508
-0.129038
-0.124802
-0.116331
-0.112096
-0.112096
-0.10786
-0.10786
-0.103625
-0.103625
-0.0993896
-0.0993896
-0.0951541
-0.0951541
-0.0909187
-0.0866833
-0.0824478
-0.0782124
-0.0739769
-0.0739769
-0.0782124
-0.0824478
-0.0909187
-0.0951541
-0.103625
-0.10786
-0.116331
-0.124802
-0.133273
-0.137508
-0.137508
-0.129038
-0.116331
-0.103625
-0.0909187
-0.0824478
-0.0739769
-0.0655061
-0.0570352
-0.0485643
-0.0443289
-0.0443289
-0.0443289
-0.0443289
-0.0443289
-0.0443289
-0.0485643
-0.0485643
-0.0527998
-0.0527998
-0.0527998
-0.0570352
-0.0570352
-0.0612706
-0.0612706
-0.0612706
-0.0612706
-0.0527998
-0.0485643
-0.035858
-0.0316226
-0.0231517
-0.0146808
-0.00620994
-0.0019745
0.00226094
0.00226094
0.00649637
0.0107318
0.0149672
0.0192027
0.0234381
0.0276736
0.031909
0.0403799
0.0446153
0.0488507
0.0573216
0.0615571
0.0742634
0.0912051
0.133559
0.175914
0.205562
0.226739
0.243681
0.252152
0.256387
0.247916
0.230975
0.209797
0.171678
0.099676
0.0488507
0.0192027
-0.0104454
-0.035858
-0.0527998
-0.0655061
-0.0782124
-0.0909187
-0.0993896
-0.103625
-0.10786
-0.112096
-0.116331
-0.120567
-0.124802
-0.133273
-0.145979
-0.15445
-0.137508
-0.0993896
0.0107318
0.214033
0.510513
0.904409
1.37878
1.87009
2.25128
2.39952
2.23857
1.79385
1.17548
0.548632
0.0573216
-0.112096
-0.158686
-0.192569
-0.209511
-0.222217
-0.230688
-0.234924
-0.239159
-0.243394
-0.24763
-0.251865
-0.260336
-0.268807
-0.273043
-0.268807
-0.256101
-0.239159
-0.226453
-0.217982
-0.213746
-0.205276
-0.20104
-0.192569
-0.184098
-0.179863
-0.175627
-0.171392
-0.167157
-0.167157
-0.162921
-0.162921
-0.158686
-0.158686
-0.15445
-0.150215
-0.145979
-0.141744
-0.137508
-0.133273
-0.133273
-0.129038
-0.120567
-0.112096
-0.103625
-0.0951541
-0.0824478
-0.0655061
-0.0443289
-0.0316226
-0.0146808
0.00226094
0.0192027
0.0361444
0.0573216
0.0742634
0.0912051
0.108147
0.125089
0.154737
0.18862
0.222504
0.252152
0.273329
0.298742
0.324154
0.349567
0.366509
0.38345
0.400392
0.413098
0.425805
0.434276
0.442746
0.451217
0.459688
0.463924
0.463924
0.459688
0.451217
0.438511
0.425805
0.404628
0.370744
0.332625
0.286035
0.222504
0.154737
0.0869697
0.0234381
-0.0316226
-0.0697415
-0.103625
-0.141744
-0.15445
-0.158686
-0.162921
-0.162921
-0.167157
-0.171392
-0.171392
-0.171392
-0.175627
-0.175627
-0.175627
-0.175627
-0.175627
-0.175627
-0.171392
-0.167157
-0.167157
-0.167157
-0.167157
-0.167157
-0.162921
-0.162921
-0.167157
-0.167157
-0.167157
-0.171392
-0.171392
-0.171392
-0.171392
-0.171392
-0.175627
-0.175627
-0.175627
-0.179863
-0.179863
-0.184098
-0.184098
-0.188334
-0.188334
-0.192569
-0.192569
-0.192569
-0.188334
-0.188334
-0.188334
-0.188334
-0.188334
-0.184098
-0.184098
-0.179863
-0.179863
-0.179863
-0.184098
-0.184098
-0.184098
-0.179863
-0.175627
-0.175627
-0.175627
-0.171392
-0.162921
-0.188334
-0.205276
-0.217982
-0.230688
-0.239159
-0.243394
-0.243394
-0.239159
-0.230688
-0.217982
-0.205276
-0.188334
-0.158686
-0.158686
-0.179863
-0.192569
-0.205276
-0.213746
-0.217982
-0.217982
-0.217982
-0.217982
-0.213746
-0.209511
-0.20104
-0.188334
-0.179863
-0.171392
-0.162921
-0.150215
-0.141744
-0.133273
-0.129038
-0.129038
-0.129038
-0.133273
-0.133273
-0.137508
-0.145979
-0.15445
-0.171392
-0.141744
-0.0951541
-0.0400934
-0.0104454
0.00649637
0.0192027
0.0276736
0.0276736
0.0234381
0.0107318
-0.00620994
-0.0316226
-0.0612706
-0.116331
-0.150215
-0.162921
-0.171392
-0.179863
-0.188334
-0.192569
-0.20104
-0.205276
-0.213746
-0.213746
-0.217982
-0.213746
-0.213746
-0.213746
-0.209511
-0.205276
-0.20104
-0.192569
-0.179863
-0.167157
-0.150215
-0.0697415
0.137795
0.459688
0.891703
1.41266
1.9675
2.42917
2.65788
2.55199
2.0988
1.40843
0.662989
0.0615571
-0.302691
-0.39587
-0.387399
-0.315397
-0.277278
-0.298455
-0.353516
-0.472108
-0.501756
-0.510227
-0.510227
-0.48905
-0.472108
-0.463637
-0.459402
-0.455166
-0.450931
-0.44246
-0.429754
-0.417047
-0.400106
-0.387399
-0.378928
-0.366222
-0.353516
-0.340809
-0.328103
-0.323868
-0.323868
-0.323868
-0.319632
-0.319632
-0.315397
-0.315397
-0.315397
-0.315397
-0.315397
-0.315397
-0.306926
-0.298455
-0.285749
-0.264572
-0.213746
-0.175627
-0.15445
-0.141744
-0.129038
-0.120567
-0.112096
-0.103625
-0.0993896
-0.0909187
-0.0739769
-0.0570352
-0.0316226
-0.00620994
0.0234381
0.0488507
0.0827342
0.116618
0.146266
0.175914
0.201326
0.218268
0.239445
0.277564
0.345331
0.417334
0.480865
0.506278
0.52322
0.531691
0.540161
0.544397
0.535926
0.52322
0.506278
0.489336
0.472394
0.451217
0.43004
0.404628
0.387686
0.366509
0.32839
0.260623
0.18862
0.125089
0.0742634
0.0361444
0.00649637
-0.0146808
-0.0273871
-0.0316226
-0.0400934
-0.0527998
-0.0655061
-0.0739769
-0.0866833
-0.0993896
-0.10786
-0.124802
-0.141744
-0.15445
-0.15445
-0.150215
-0.145979
-0.141744
-0.137508
-0.137508
-0.133273
-0.129038
-0.129038
-0.124802
-0.124802
-0.124802
-0.120567
-0.120567
-0.124802
-0.129038
-0.137508
-0.145979
-0.15445
-0.158686
-0.167157
-0.171392
-0.179863
-0.188334
-0.192569
-0.196805
-0.192569
-0.188334
-0.184098
-0.179863
-0.171392
-0.158686
-0.150215
-0.133273
-0.116331
-0.10786
-0.103625
-0.10786
-0.112096
-0.116331
-0.116331
-0.120567
-0.124802
-0.129038
-0.133273
-0.137508
-0.137508
-0.141744
-0.141744
-0.141744
-0.141744
-0.137508
-0.133273
-0.129038
-0.124802
-0.120567
-0.116331
-0.112096
-0.112096
-0.10786
-0.10786
-0.112096
-0.112096
-0.112096
-0.10786
-0.103625
-0.0993896
-0.0993896
-0.0951541
-0.0951541
-0.0909187
-0.0866833
-0.0866833
-0.0824478
-0.0824478
-0.0824478
-0.0782124
-0.0739769
-0.0697415
-0.0655061
-0.0655061
-0.0612706
-0.0570352
-0.0527998
-0.0485643
-0.0400934
-0.035858
-0.0316226
-0.0273871
-0.0189162
-0.0104454
-0.0019745
0.00226094
0.0107318
0.0192027
0.0276736
0.0446153
0.0742634
0.103911
0.125089
0.146266
0.167443
0.180149
0.167443
0.14203
0.116618
0.0954406
0.0700279
0.0488507
0.031909
0.0192027
0.00649637
-0.00620994
-0.0189162
-0.0316226
-0.0485643
-0.0655061
-0.0824478
-0.0951541
-0.103625
-0.112096
-0.120567
-0.124802
-0.129038
-0.124802
-0.120567
-0.10786
-0.0951541
-0.0782124
-0.0527998
0.0403799
0.311448
0.713814
1.24748
1.8828
2.50117
2.88659
2.90777
2.64517
1.95903
1.16277
0.455453
-0.0146808
-0.167157
-0.217982
-0.24763
-0.268807
-0.281513
-0.29422
-0.302691
-0.311161
-0.315397
-0.319632
-0.323868
-0.328103
-0.332339
-0.332339
-0.332339
-0.336574
-0.332339
-0.328103
-0.323868
-0.319632
-0.315397
-0.311161
-0.306926
-0.298455
-0.29422
-0.285749
-0.277278
-0.268807
-0.256101
-0.24763
-0.234924
-0.226453
-0.217982
-0.209511
-0.20104
-0.196805
-0.188334
-0.184098
-0.179863
-0.175627
-0.171392
-0.162921
-0.15445
-0.150215
-0.145979
-0.137508
-0.133273
-0.124802
-0.112096
-0.0866833
-0.0316226
0.00649637
0.031909
0.0530862
0.0784988
0.120853
0.184385
0.23521
0.264858
0.286035
0.307212
0.32839
0.353802
0.38345
0.404628
0.417334
0.425805
0.434276
0.446982
0.459688
0.47663
0.493572
0.506278
0.52322
0.535926
0.544397
0.552868
0.548632
0.544397
0.531691
0.514749
0.493572
0.446982
0.374979
0.319919
0.277564
0.230975
0.171678
0.0912051
0.0276736
-0.0231517
-0.0612706
-0.0824478
-0.0951541
-0.10786
-0.116331
-0.120567
-0.124802
-0.129038
-0.129038
-0.129038
-0.129038
-0.124802
-0.124802
-0.120567
-0.112096
-0.10786
-0.0993896
-0.0909187
-0.0739769
-0.0612706
-0.0782124
-0.103625
-0.116331
-0.120567
-0.129038
-0.137508
-0.145979
-0.150215
-0.15445
-0.158686
-0.167157
-0.171392
-0.179863
-0.184098
-0.184098
-0.184098
-0.184098
-0.184098
-0.188334
-0.188334
-0.192569
-0.192569
-0.196805
-0.20104
-0.205276
-0.213746
-0.217982
-0.217982
-0.217982
-0.213746
-0.209511
-0.20104
-0.196805
-0.188334
-0.184098
-0.175627
-0.171392
-0.162921
-0.158686
-0.15445
-0.150215
-0.150215
-0.145979
-0.137508
-0.133273
-0.133273
-0.133273
-0.133273
-0.137508
-0.137508
-0.141744
-0.141744
-0.145979
-0.150215
-0.15445
-0.15445
-0.15445
-0.15445
-0.15445
-0.15445
-0.150215
-0.145979
-0.141744
-0.133273
-0.124802
-0.116331
-0.112096
-0.10786
-0.10786
-0.103625
-0.0993896
-0.0951541
-0.0951541
-0.0909187
-0.0866833
-0.0824478
-0.0782124
-0.0739769
-0.0697415
-0.0697415
-0.0697415
-0.0655061
-0.0612706
-0.0570352
-0.0485643
-0.0443289
-0.035858
-0.0316226
-0.0189162
0.00649637
0.0276736
0.0488507
0.0700279
0.103911
0.14203
0.171678
0.184385
0.197091
0.205562
0.209797
0.205562
0.18862
0.167443
0.125089
0.0488507
-0.0019745
-0.0231517
-0.035858
-0.0485643
-0.0570352
-0.0655061
-0.0697415
-0.0739769
-0.0782124
-0.0824478
-0.0824478
-0.0866833
-0.0909187
-0.0909187
-0.0909187
-0.0866833
-0.0824478
-0.0782124
-0.0655061
-0.0485643
0.00649637
0.112382
0.315683
0.650283
1.11195
1.64985
2.18351
2.58588
2.73835
2.57741
2.11574
1.47196
0.790052
0.239445
-0.0909187
-0.171392
-0.188334
-0.205276
-0.213746
-0.222217
-0.226453
-0.230688
-0.230688
-0.230688
-0.230688
-0.226453
-0.222217
-0.217982
-0.209511
-0.20104
-0.196805
-0.188334
-0.184098
-0.179863
-0.175627
-0.171392
-0.167157
-0.158686
-0.150215
-0.145979
-0.137508
-0.133273
-0.124802
-0.120567
-0.112096
-0.10786
-0.103625
-0.0993896
-0.0951541
-0.0866833
-0.0782124
-0.0697415
-0.0612706
-0.0527998
-0.0443289
-0.035858
-0.0316226
-0.0189162
-0.0146808
-0.0104454
-0.00620994
-0.0019745
0.00649637
0.0149672
0.0276736
0.0530862
0.0784988
0.112382
0.14203
0.175914
0.201326
0.222504
0.247916
0.277564
0.315683
0.349567
0.374979
0.400392
0.425805
0.451217
0.472394
0.502043
0.540161
0.565574
0.590987
0.607929
0.620635
0.629106
0.633341
0.637577
0.646047
0.658754
0.658754
0.62487
0.582516
0.527455
0.489336
0.459688
0.425805
0.387686
0.336861
0.286035
0.23521
0.180149
0.125089
0.0827342
0.0488507
0.0107318
-0.0273871
-0.0527998
-0.0612706
-0.0612706
-0.0655061
-0.0655061
-0.0655061
-0.0697415
-0.0697415
-0.0697415
-0.0655061
-0.0655061
-0.0612706
-0.0570352
-0.0570352
-0.0527998
-0.0527998
-0.0485643
-0.0443289
-0.0443289
-0.0400934
-0.0400934
-0.0400934
-0.0400934
-0.0400934
-0.0400934
-0.0443289
-0.0485643
-0.0527998
-0.0570352
-0.0612706
-0.0655061
-0.0697415
-0.0697415
-0.0739769
-0.0782124
-0.0824478
-0.0824478
-0.0824478
-0.0866833
-0.0866833
-0.0866833
-0.0866833
-0.0866833
-0.0824478
-0.0739769
-0.0697415
-0.0655061
-0.0612706
-0.0570352
-0.0527998
-0.0400934
-0.0316226
-0.0189162
-0.0146808
-0.0189162
-0.0189162
-0.0231517
-0.0273871
-0.0316226
-0.035858
-0.035858
-0.0273871
-0.0146808
-0.0019745
0.00649637
0.0192027
0.0234381
0.0276736
0.0276736
0.0234381
0.0149672
0.00226094
-0.0104454
-0.0316226
-0.0400934
-0.0316226
-0.0189162
-0.0146808
-0.0104454
-0.00620994
-0.0019745
0.00226094
0.00649637
0.0107318
0.0149672
0.0192027
0.0192027
0.0234381
0.0234381
0.0276736
0.0276736
0.031909
0.0361444
0.0446153
0.0530862
0.0657925
0.0784988
0.0954406
0.116618
0.133559
0.150501
0.167443
0.180149
0.184385
0.180149
0.171678
0.158972
0.146266
0.116618
0.0530862
0.0107318
-0.0146808
-0.0316226
-0.0400934
-0.0527998
-0.0655061
-0.0782124
-0.103625
-0.133273
-0.145979
-0.150215
-0.158686
-0.158686
-0.162921
-0.162921
-0.15445
-0.145979
-0.133273
-0.112096
-0.0824478
-0.0104454
0.158972
0.463924
0.925586
1.49737
2.04374
2.34446
2.34869
2.07763
1.47619
0.806994
0.230975
-0.112096
-0.175627
-0.192569
-0.20104
-0.209511
-0.213746
-0.226453
-0.234924
-0.243394
-0.24763
-0.256101
-0.264572
-0.281513
-0.298455
-0.315397
-0.319632
-0.302691
-0.277278
-0.264572
-0.256101
-0.251865
-0.243394
-0.239159
-0.230688
-0.222217
-0.217982
-0.209511
-0.205276
-0.20104
-0.192569
-0.188334
-0.179863
-0.175627
-0.167157
-0.158686
-0.150215
-0.141744
-0.129038
-0.120567
-0.10786
-0.0951541
-0.0866833
-0.0782124
-0.0697415
-0.0655061
-0.0570352
-0.0527998
-0.0443289
-0.0400934
-0.0316226
-0.0316226
-0.0231517
-0.0189162
-0.00620994
0.0149672
0.0700279
0.116618
0.14203
0.167443
0.184385
0.201326
0.226739
0.260623
0.294506
0.324154
0.358038
0.391921
0.421569
0.442746
0.451217
0.463924
0.472394
0.47663
0.480865
0.47663
0.463924
0.451217
0.434276
0.421569
0.404628
0.387686
0.366509
0.345331
0.324154
0.2818
0.214033
0.175914
0.150501
0.129324
0.0954406
0.0615571
0.0361444
0.0107318
-0.0146808
-0.035858
-0.0527998
-0.0697415
-0.0824478
-0.10786
-0.145979
-0.179863
-0.20104
-0.213746
-0.222217
-0.226453
-0.230688
-0.226453
-0.222217
-0.217982
-0.213746
-0.205276
-0.196805
-0.188334
-0.175627
-0.167157
-0.162921
-0.162921
-0.162921
-0.162921
-0.158686
-0.162921
-0.162921
-0.167157
-0.171392
-0.175627
-0.171392
-0.162921
-0.158686
-0.150215
-0.137508
-0.129038
-0.137508
-0.158686
-0.171392
-0.188334
-0.20104
-0.209511
-0.209511
-0.205276
-0.20104
-0.192569
-0.184098
-0.175627
-0.167157
-0.158686
-0.15445
-0.158686
-0.167157
-0.175627
-0.188334
-0.205276
-0.217982
-0.222217
-0.213746
-0.205276
-0.196805
-0.192569
-0.184098
-0.175627
-0.171392
-0.171392
-0.175627
-0.179863
-0.184098
-0.188334
-0.192569
-0.196805
-0.20104
-0.209511
-0.213746
-0.217982
-0.217982
-0.222217
-0.226453
-0.226453
-0.226453
-0.226453
-0.222217
-0.222217
-0.222217
-0.222217
-0.222217
-0.226453
-0.230688
-0.239159
-0.243394
-0.230688
-0.209511
-0.196805
-0.184098
-0.175627
-0.167157
-0.162921
-0.15445
-0.150215
-0.141744
-0.137508
-0.129038
-0.124802
-0.120567
-0.116331
-0.10786
-0.0909187
-0.0782124
-0.0951541
-0.124802
-0.15445
-0.184098
-0.222217
-0.260336
-0.285749
-0.311161
-0.332339
-0.340809
-0.340809
-0.340809
-0.340809
-0.340809
-0.340809
-0.336574
-0.336574
-0.336574
-0.336574
-0.332339
-0.328103
-0.319632
-0.306926
-0.289984
-0.264572
-0.175627
0.0446153
0.391921
0.857819
1.39572
1.91244
2.24704
2.27246
2.0861
1.53972
0.870526
0.277564
-0.120567
-0.306926
-0.39587
-0.467873
-0.552581
-0.628819
-0.679645
-0.645761
-0.5907
-0.527169
-0.493285
-0.480579
-0.472108
-0.467873
-0.459402
-0.455166
-0.450931
-0.446695
-0.44246
-0.438225
-0.429754
-0.417047
-0.417047
-0.425518
-0.438225
-0.446695
-0.417047
-0.391635
-0.378928
-0.366222
-0.357751
-0.353516
-0.353516
-0.353516
-0.353516
-0.353516
-0.353516
-0.353516
-0.357751
-0.34928
-0.311161
-0.285749
-0.273043
-0.260336
-0.24763
-0.243394
-0.234924
-0.226453
-0.217982
-0.209511
-0.20104
-0.188334
-0.167157
-0.129038
-0.0909187
-0.0527998
-0.0146808
0.0276736
0.0657925
0.108147
0.150501
0.184385
0.205562
0.226739
0.247916
0.277564
0.302977
0.32839
0.353802
0.374979
0.387686
0.396157
0.404628
0.408863
0.417334
0.425805
0.434276
0.438511
0.434276
0.417334
0.396157
0.358038
0.302977
0.247916
0.192856
0.14203
0.103911
0.0615571
0.0234381
-0.0189162
-0.0443289
-0.0655061
-0.0824478
-0.0951541
-0.10786
-0.124802
-0.141744
-0.158686
-0.175627
-0.196805
-0.213746
-0.222217
-0.230688
-0.234924
-0.234924
-0.239159
-0.24763
-0.24763
-0.251865
-0.251865
-0.24763
-0.239159
-0.230688
-0.222217
-0.209511
-0.20104
-0.192569
-0.184098
-0.175627
-0.167157
-0.162921
-0.162921
-0.158686
-0.15445
-0.15445
-0.150215
-0.150215
-0.150215
-0.150215
-0.150215
-0.150215
-0.145979
-0.145979
-0.145979
-0.145979
-0.145979
-0.141744
-0.141744
-0.141744
-0.141744
-0.141744
-0.141744
-0.137508
-0.137508
-0.133273
-0.133273
-0.129038
-0.129038
-0.124802
-0.120567
-0.116331
-0.112096
-0.112096
-0.10786
-0.103625
-0.0993896
-0.0951541
-0.0866833
-0.0866833
-0.0824478
-0.0824478
-0.0824478
-0.0824478
-0.0866833
-0.0909187
-0.0909187
-0.0951541
-0.0993896
-0.103625
-0.10786
-0.10786
-0.112096
-0.112096
-0.120567
-0.124802
-0.124802
-0.120567
-0.10786
-0.0909187
-0.0739769
-0.0655061
-0.0570352
-0.0527998
-0.0485643
-0.0443289
-0.0400934
-0.035858
-0.0316226
-0.0316226
-0.0316226
-0.0273871
-0.0231517
-0.0189162
-0.0189162
-0.0146808
-0.0146808
-0.0146808
-0.0146808
-0.0146808
-0.0104454
-0.0019745
0.00649637
0.0149672
0.031909
0.0700279
0.099676
0.120853
0.150501
0.184385
0.230975
0.264858
0.294506
0.307212
0.286035
0.247916
0.205562
0.163208
0.125089
0.0912051
0.0446153
0.00226094
-0.0146808
-0.0231517
-0.0316226
-0.0316226
-0.035858
-0.0400934
-0.0443289
-0.0443289
-0.0443289
-0.0400934
-0.0400934
-0.0316226
-0.0316226
-0.0273871
-0.0189162
-0.0104454
0.00226094
0.0192027
0.0488507
0.146266
0.38345
0.743463
1.23054
1.81503
2.40375
2.83153
2.95013
2.67906
2.06915
1.30254
0.57828
0.0615571
-0.10786
-0.167157
-0.150215
-0.133273
-0.116331
-0.162921
-0.217982
-0.264572
-0.289984
-0.302691
-0.315397
-0.323868
-0.328103
-0.323868
-0.311161
-0.289984
-0.268807
-0.256101
-0.243394
-0.230688
-0.217982
-0.205276
-0.192569
-0.184098
-0.179863
-0.175627
-0.171392
-0.171392
-0.167157
-0.162921
-0.162921
-0.158686
-0.15445
-0.150215
-0.145979
-0.137508
-0.133273
-0.129038
-0.124802
-0.116331
-0.10786
-0.0993896
-0.0909187
-0.0824478
-0.0739769
-0.0655061
-0.0527998
-0.0400934
-0.0273871
-0.0104454
0.00649637
0.0234381
0.0403799
0.0615571
0.0869697
0.108147
0.129324
0.150501
0.175914
0.197091
0.222504
0.247916
0.273329
0.298742
0.341096
0.400392
0.451217
0.480865
0.497807
0.510513
0.518984
0.527455
0.531691
0.535926
0.535926
0.535926
0.531691
0.518984
0.510513
0.497807
0.480865
0.442746
0.374979
0.311448
0.23521
0.163208
0.112382
0.0657925
0.0361444
0.0149672
-0.0019745
-0.0189162
-0.0400934
-0.0655061
-0.0866833
-0.0951541
-0.103625
-0.112096
-0.120567
-0.124802
-0.129038
-0.137508
-0.141744
-0.145979
-0.15445
-0.158686
-0.162921
-0.167157
-0.171392
-0.171392
-0.175627
-0.175627
-0.171392
-0.167157
-0.162921
-0.162921
-0.162921
-0.162921
-0.162921
-0.162921
-0.162921
-0.162921
-0.167157
-0.171392
-0.175627
-0.171392
-0.171392
-0.167157
-0.167157
-0.167157
-0.167157
-0.167157
-0.167157
-0.162921
-0.162921
-0.162921
-0.167157
-0.171392
-0.171392
-0.171392
-0.171392
-0.171392
-0.171392
-0.167157
-0.167157
-0.162921
-0.158686
-0.15445
-0.15445
-0.15445
-0.15445
-0.15445
-0.15445
-0.158686
-0.158686
-0.162921
-0.162921
-0.162921
-0.162921
-0.158686
-0.158686
-0.158686
-0.162921
-0.162921
-0.162921
-0.162921
-0.162921
-0.162921
-0.167157
-0.167157
-0.171392
-0.171392
-0.171392
-0.167157
-0.167157
-0.167157
-0.162921
-0.162921
-0.158686
-0.158686
-0.158686
-0.158686
-0.162921
-0.162921
-0.162921
-0.162921
-0.162921
-0.162921
-0.162921
-0.158686
-0.15445
-0.150215
-0.145979
-0.145979
-0.141744
-0.141744
-0.137508
-0.137508
-0.133273
-0.129038
-0.129038
-0.129038
-0.129038
-0.124802
-0.120567
-0.112096
-0.103625
-0.0909187
-0.0782124
-0.0655061
-0.0570352
-0.0443289
-0.0316226
-0.0146808
0.0107318
0.0530862
0.120853
0.133559
0.14203
0.146266
0.150501
0.154737
0.146266
0.125089
0.0954406
0.0530862
0.00226094
-0.0273871
-0.035858
-0.0443289
-0.0485643
-0.0570352
-0.0655061
-0.0697415
-0.0782124
-0.0866833
-0.0951541
-0.103625
-0.112096
-0.120567
-0.129038
-0.141744
-0.158686
-0.196805
-0.213746
-0.192569
-0.133273
0.031909
0.358038
0.823936
1.39572
2.01409
2.56894
2.82306
2.80612
2.45458
1.79809
1.0823
0.455453
0.0361444
-0.035858
-0.0612706
-0.0739769
-0.0909187
-0.103625
-0.120567
-0.158686
-0.234924
-0.29422
-0.328103
-0.353516
-0.34928
-0.311161
-0.268807
-0.243394
-0.226453
-0.209511
-0.192569
-0.179863
-0.171392
-0.158686
-0.15445
-0.145979
-0.141744
-0.137508
-0.133273
-0.133273
-0.133273
-0.129038
-0.129038
-0.124802
-0.120567
-0.116331
-0.112096
-0.103625
-0.0909187
-0.0824478
-0.0697415
-0.0612706
-0.0527998
-0.0400934
-0.0316226
-0.0189162
-0.00620994
0.00226094
0.0149672
0.0276736
0.0403799
0.0530862
0.0657925
0.0784988
0.0954406
0.120853
0.146266
0.171678
0.201326
0.239445
0.290271
0.336861
0.370744
0.396157
0.421569
0.446982
0.468159
0.489336
0.510513
0.535926
0.557103
0.574045
0.590987
0.603693
0.612164
0.62487
0.637577
0.646047
0.650283
0.650283
0.641812
0.629106
0.616399
0.590987
0.544397
0.493572
0.434276
0.366509
0.298742
0.23521
0.192856
0.158972
0.129324
0.0954406
0.0573216
0.00226094
-0.0485643
-0.0697415
-0.0782124
-0.0866833
-0.0951541
-0.103625
-0.10786
-0.112096
-0.116331
-0.116331
-0.116331
-0.116331
-0.120567
-0.120567
-0.124802
-0.124802
-0.124802
-0.124802
-0.124802
-0.124802
-0.124802
-0.124802
-0.124802
-0.129038
-0.129038
-0.129038
-0.129038
-0.129038
-0.124802
-0.124802
-0.124802
-0.124802
-0.124802
-0.124802
-0.124802
-0.120567
-0.116331
-0.116331
-0.112096
-0.116331
-0.116331
-0.116331
-0.116331
-0.116331
-0.112096
-0.112096
-0.116331
-0.116331
-0.116331
-0.112096
-0.10786
-0.10786
-0.103625
-0.10786
-0.10786
-0.10786
-0.10786
-0.10786
-0.10786
-0.10786
-0.112096
-0.112096
-0.112096
-0.112096
-0.10786
-0.10786
-0.103625
-0.103625
-0.0993896
-0.0951541
-0.0866833
-0.0824478
-0.0739769
-0.0697415
-0.0655061
-0.0612706
-0.0527998
-0.0443289
-0.0400934
-0.0316226
-0.0316226
-0.0273871
-0.0273871
-0.0231517
-0.0231517
-0.0189162
-0.0231517
-0.0231517
-0.0273871
-0.0273871
-0.0273871
-0.0273871
-0.0316226
-0.0316226
-0.035858
-0.0316226
-0.0104454
0.0107318
0.0276736
0.0403799
0.0488507
0.0615571
0.0700279
0.0827342
0.108147
0.14203
0.158972
0.167443
0.171678
0.180149
0.184385
0.184385
0.175914
0.163208
0.146266
0.116618
0.0530862
0.0234381
0.0107318
-0.0019745
-0.0146808
-0.0231517
-0.0273871
-0.0316226
-0.0316226
-0.035858
-0.035858
-0.0400934
-0.0400934
-0.0400934
-0.0443289
-0.0443289
-0.0443289
-0.0527998
-0.0697415
-0.0400934
0.0361444
0.205562
0.47663
0.845113
1.28983
1.75573
2.14539
2.28093
2.24281
1.93786
1.4296
0.878996
0.417334
0.116618
-0.0316226
-0.10786
-0.175627
-0.234924
-0.268807
-0.29422
-0.29422
-0.256101
-0.230688
-0.213746
-0.20104
-0.188334
-0.175627
-0.162921
-0.15445
-0.137508
-0.10786
-0.0655061
-0.0485643
-0.0400934
-0.0316226
-0.0316226
-0.0443289
-0.0697415
-0.0866833
-0.103625
-0.116331
-0.124802
-0.124802
-0.112096
-0.0993896
-0.0782124
-0.0612706
-0.0400934
-0.0189162
-0.0019745
0.0149672
0.0276736
0.0403799
0.0488507
0.0573216
0.0657925
0.0742634
0.0869697
0.0954406
0.103911
0.112382
0.120853
0.129324
0.137795
0.146266
0.154737
0.163208
0.171678
0.180149
0.192856
0.205562
0.23521
0.260623
0.2818
0.311448
0.345331
0.379215
0.413098
0.446982
0.480865
0.527455
0.57828
0.607929
0.62487
0.633341
0.637577
0.633341
0.620635
0.603693
0.586751
0.565574
0.544397
0.518984
0.493572
0.468159
0.446982
0.421569
0.387686
0.332625
0.273329
0.214033
0.167443
0.129324
0.0954406
0.0530862
-0.0104454
-0.035858
-0.0485643
-0.0570352
-0.0697415
-0.0739769
-0.0824478
-0.0866833
-0.0909187
-0.0909187
-0.0909187
-0.0951541
-0.0951541
-0.0993896
-0.0993896
-0.103625
-0.10786
-0.116331
-0.116331
-0.10786
-0.0951541
-0.0824478
-0.0697415
-0.0612706
-0.0570352
-0.0570352
-0.0697415
-0.0824478
-0.0909187
-0.0951541
-0.0993896
-0.10786
-0.116331
-0.120567
-0.124802
-0.129038
-0.129038
-0.129038
-0.133273
-0.133273
-0.133273
-0.129038
-0.129038
-0.124802
-0.124802
-0.124802
-0.124802
-0.120567
-0.116331
-0.116331
-0.129038
-0.145979
-0.15445
-0.158686
-0.162921
-0.167157
-0.167157
-0.171392
-0.175627
-0.175627
-0.175627
-0.175627
-0.175627
-0.175627
-0.171392
-0.171392
-0.167157
-0.167157
-0.162921
-0.162921
-0.162921
-0.158686
-0.15445
-0.150215
-0.145979
-0.150215
-0.150215
-0.15445
-0.158686
-0.158686
-0.162921
-0.162921
-0.167157
-0.171392
-0.171392
-0.171392
-0.167157
-0.162921
-0.158686
-0.150215
-0.145979
-0.141744
-0.137508
-0.133273
-0.129038
-0.129038
-0.124802
-0.120567
-0.112096
-0.103625
-0.0951541
-0.0866833
-0.0782124
-0.0697415
-0.0570352
-0.0443289
-0.0231517
0.00226094
0.00226094
-0.0146808
-0.035858
-0.0612706
-0.0909187
-0.116331
-0.141744
-0.179863
-0.234924
-0.256101
-0.268807
-0.277278
-0.285749
-0.29422
-0.302691
-0.311161
-0.315397
-0.323868
-0.332339
-0.340809
-0.34928
-0.361987
-0.383164
-0.400106
-0.400106
-0.383164
-0.345045
-0.234924
0.00649637
0.38345
0.891703
1.48043
2.05221
2.45881
2.5647
2.28093
1.66679
0.900174
0.18862
-0.323868
-0.522933
-0.586465
-0.552581
-0.527169
-0.514462
-0.501756
-0.493285
-0.484814
-0.484814
-0.480579
-0.480579
-0.480579
-0.480579
-0.480579
-0.480579
-0.484814
-0.48905
-0.493285
-0.493285
-0.48905
-0.476344
-0.463637
-0.459402
-0.455166
-0.450931
-0.44246
-0.438225
-0.433989
-0.425518
-0.421283
-0.417047
-0.412812
-0.408576
-0.400106
-0.39587
-0.387399
-0.378928
-0.366222
-0.340809
-0.315397
-0.289984
-0.251865
-0.217982
-0.209511
-0.205276
-0.205276
-0.20104
-0.20104
-0.196805
-0.188334
-0.171392
-0.15445
-0.120567
-0.0612706
-0.0231517
-0.0019745
0.0149672
0.0446153
0.0784988
0.108147
0.137795
0.163208
0.180149
0.192856
0.201326
0.222504
0.2818
0.332625
0.358038
0.379215
0.391921
0.400392
0.404628
0.413098
0.417334
0.425805
0.438511
0.442746
0.442746
0.43004
0.408863
0.38345
0.353802
0.302977
0.260623
0.209797
0.137795
0.0530862
-0.0231517
-0.0612706
-0.0866833
-0.103625
-0.124802
-0.141744
-0.158686
-0.171392
-0.184098
-0.192569
-0.20104
-0.209511
-0.213746
-0.217982
-0.222217
-0.226453
-0.230688
-0.230688
-0.234924
-0.239159
-0.243394
-0.24763
-0.24763
-0.24763
-0.24763
-0.24763
-0.24763
-0.24763
-0.24763
-0.24763
-0.243394
-0.243394
-0.24763
-0.230688
-0.217982
-0.209511
-0.20104
-0.192569
-0.188334
-0.184098
-0.188334
-0.188334
-0.184098
-0.184098
-0.179863
-0.184098
-0.184098
-0.188334
-0.188334
-0.188334
-0.188334
-0.188334
-0.188334
-0.188334
-0.192569
-0.192569
-0.192569
-0.192569
-0.196805
-0.20104
-0.205276
-0.209511
-0.213746
-0.217982
-0.222217
-0.226453
-0.230688
-0.234924
-0.234924
-0.234924
-0.226453
-0.217982
-0.209511
-0.20104
-0.192569
-0.188334
-0.179863
-0.171392
-0.167157
-0.158686
-0.15445
-0.150215
-0.145979
-0.145979
-0.145979
-0.150215
-0.150215
-0.15445
-0.158686
-0.162921
-0.167157
-0.171392
-0.175627
-0.175627
-0.179863
-0.179863
-0.188334
-0.196805
-0.20104
-0.196805
-0.179863
-0.158686
-0.145979
-0.137508
-0.129038
-0.120567
-0.112096
-0.0993896
-0.0909187
-0.0824478
-0.0739769
-0.0655061
-0.0527998
-0.035858
-0.00620994
0.031909
0.0657925
0.0954406
0.108147
0.120853
0.129324
0.14203
0.14203
0.112382
0.0700279
0.0107318
-0.035858
-0.0739769
-0.103625
-0.124802
-0.137508
-0.150215
-0.158686
-0.162921
-0.167157
-0.162921
-0.158686
-0.158686
-0.158686
-0.15445
-0.15445
-0.150215
-0.141744
-0.133273
-0.120567
-0.103625
-0.0739769
0.0234381
0.256387
0.586751
1.02724
1.57361
2.16657
2.64517
2.85271
2.68753
2.17504
1.46772
0.751933
0.205562
-0.10786
-0.171392
-0.188334
-0.20104
-0.209511
-0.217982
-0.226453
-0.234924
-0.243394
-0.24763
-0.256101
-0.260336
-0.268807
-0.273043
-0.277278
-0.285749
-0.289984
-0.29422
-0.29422
-0.289984
-0.285749
-0.281513
-0.273043
-0.260336
-0.24763
-0.234924
-0.217982
-0.20104
-0.188334
-0.175627
-0.162921
-0.15445
-0.145979
-0.137508
-0.133273
-0.124802
-0.116331
-0.103625
-0.0951541
-0.0866833
-0.0782124
-0.0655061
-0.0485643
-0.0316226
-0.0104454
0.00649637
0.0192027
0.0276736
0.0403799
0.0488507
0.0615571
0.0784988
0.0954406
0.112382
0.129324
0.154737
0.175914
0.205562
0.230975
0.260623
0.298742
0.324154
0.345331
0.366509
0.38345
0.400392
0.421569
0.442746
0.463924
0.480865
0.497807
0.514749
0.527455
0.544397
0.557103
0.574045
0.586751
0.595222
0.586751
0.56981
0.544397
0.510513
0.459688
0.408863
0.345331
0.264858
0.201326
0.150501
0.116618
0.0784988
0.0107318
-0.0400934
-0.0697415
-0.0866833
-0.0993896
-0.112096
-0.116331
-0.120567
-0.120567
-0.124802
-0.124802
-0.129038
-0.137508
-0.141744
-0.141744
-0.145979
-0.145979
-0.145979
-0.150215
-0.150215
-0.145979
-0.141744
-0.141744
-0.137508
-0.137508
-0.141744
-0.145979
-0.145979
-0.150215
-0.150215
-0.15445
-0.158686
-0.162921
-0.162921
-0.162921
-0.158686
-0.158686
-0.158686
-0.15445
-0.15445
-0.15445
-0.158686
-0.158686
-0.167157
-0.171392
-0.179863
-0.184098
-0.188334
-0.188334
-0.192569
-0.192569
-0.196805
-0.196805
-0.20104
-0.20104
-0.205276
-0.209511
-0.213746
-0.213746
-0.213746
-0.213746
-0.209511
-0.205276
-0.205276
-0.20104
-0.196805
-0.192569
-0.184098
-0.184098
-0.179863
-0.184098
-0.184098
-0.188334
-0.188334
-0.192569
-0.196805
-0.205276
-0.209511
-0.213746
-0.222217
-0.226453
-0.226453
-0.230688
-0.239159
-0.24763
-0.251865
-0.256101
-0.24763
-0.234924
-0.222217
-0.209511
-0.196805
-0.192569
-0.184098
-0.171392
-0.162921
-0.15445
-0.145979
-0.137508
-0.133273
-0.129038
-0.124802
-0.120567
-0.112096
-0.10786
-0.0993896
-0.0909187
-0.0824478
-0.0612706
-0.0400934
-0.0231517
0.00649637
0.0361444
0.0573216
0.0784988
0.099676
0.116618
0.129324
0.137795
0.137795
0.14203
0.14203
0.146266
0.150501
0.154737
0.158972
0.158972
0.158972
0.158972
0.154737
0.150501
0.137795
0.120853
0.099676
0.0700279
0.0192027
-0.0019745
-0.0146808
-0.0231517
-0.0316226
-0.0316226
-0.035858
-0.0400934
-0.0485643
-0.0527998
-0.0570352
-0.0612706
-0.0655061
-0.0697415
-0.0782124
-0.0909187
-0.120567
-0.0866833
0.0149672
0.197091
0.472394
0.862055
1.37031
1.9548
2.48423
2.72141
2.70023
2.3614
1.71761
0.984882
0.362273
-0.035858
-0.120567
-0.145979
-0.162921
-0.175627
-0.184098
-0.192569
-0.20104
-0.205276
-0.209511
-0.213746
-0.217982
-0.222217
-0.222217
-0.222217
-0.222217
-0.226453
-0.222217
-0.217982
-0.209511
-0.20104
-0.192569
-0.184098
-0.175627
-0.167157
-0.162921
-0.158686
-0.15445
-0.145979
-0.141744
-0.129038
-0.120567
-0.112096
-0.103625
-0.0951541
-0.0866833
-0.0782124
-0.0697415
-0.0570352
-0.0527998
-0.0443289
-0.035858
-0.0316226
-0.0231517
-0.0104454
-0.0019745
0.00649637
0.0149672
0.0234381
0.031909
0.0446153
0.0530862
0.0700279
0.0912051
0.129324
0.154737
0.171678
0.18862
0.201326
0.222504
0.252152
0.298742
0.362273
0.413098
0.455453
0.502043
0.535926
0.561339
0.57828
0.590987
0.599458
0.607929
0.612164
0.620635
0.62487
0.633341
0.637577
0.637577
0.629106
0.607929
0.586751
0.557103
0.510513
0.463924
0.421569
0.379215
0.32839
0.286035
0.252152
0.218268
0.18862
0.137795
0.0657925
0.0192027
-0.00620994
-0.0231517
-0.0316226
-0.0400934
-0.0485643
-0.0570352
-0.0570352
-0.0612706
-0.0612706
-0.0655061
-0.0697415
-0.0739769
-0.0739769
-0.0739769
-0.0697415
-0.0739769
-0.0739769
-0.0782124
-0.0739769
-0.0739769
-0.0697415
-0.0697415
-0.0697415
-0.0739769
-0.0739769
-0.0782124
-0.0739769
-0.0739769
-0.0697415
-0.0697415
-0.0739769
-0.0739769
-0.0739769
-0.0697415
-0.0697415
-0.0697415
-0.0697415
-0.0697415
-0.0739769
-0.0739769
-0.0739769
-0.0739769
-0.0739769
-0.0782124
-0.0782124
-0.0782124
-0.0824478
-0.0782124
-0.0824478
-0.0824478
-0.0866833
-0.0866833
-0.0866833
-0.0866833
-0.0866833
-0.0824478
-0.0782124
-0.0782124
-0.0739769
-0.0739769
-0.0697415
-0.0655061
-0.0612706
-0.0570352
-0.0570352
-0.0527998
-0.0527998
-0.0527998
-0.0485643
-0.0485643
-0.0443289
-0.0443289
-0.0400934
-0.0400934
-0.0400934
-0.035858
-0.035858
-0.035858
-0.035858
-0.035858
-0.035858
-0.035858
-0.035858
-0.035858
-0.035858
-0.035858
-0.0400934
-0.035858
-0.035858
-0.0316226
-0.0316226
-0.0273871
-0.0189162
-0.0146808
-0.00620994
0.00226094
0.0107318
0.0234381
0.0573216
0.0869697
0.103911
0.116618
0.129324
0.137795
0.14203
0.137795
0.125089
0.103911
0.0784988
0.031909
-0.0316226
-0.0697415
-0.0951541
-0.10786
-0.116331
-0.120567
-0.124802
-0.129038
-0.133273
-0.141744
-0.145979
-0.145979
-0.145979
-0.150215
-0.150215
-0.145979
-0.145979
-0.137508
-0.129038
-0.116331
-0.0993896
-0.0824478
-0.00620994
0.222504
0.565574
1.0103
1.51431
1.97597
2.20045
2.18351
1.8828
1.2983
0.646047
0.0954406
-0.243394
-0.332339
-0.361987
-0.391635
-0.425518
-0.484814
-0.531404
-0.548346
-0.556817
-0.518698
-0.493285
-0.480579
-0.476344
-0.467873
-0.459402
-0.455166
-0.450931
-0.44246
-0.433989
-0.425518
-0.417047
-0.408576
-0.400106
-0.39587
-0.391635
-0.383164
-0.374693
-0.366222
-0.357751
-0.34928
-0.340809
-0.332339
-0.323868
-0.315397
-0.306926
-0.298455
-0.289984
-0.277278
-0.256101
-0.222217
-0.196805
-0.175627
-0.162921
-0.15445
-0.145979
-0.133273
-0.116331
-0.0951541
-0.0739769
-0.0527998
-0.0316226
-0.0104454
0.00649637
0.0192027
0.031909
0.0446153
0.0615571
0.0784988
0.099676
0.120853
0.146266
0.184385
0.226739
0.269093
0.311448
0.349567
0.374979
0.391921
0.404628
0.421569
0.438511
0.451217
0.463924
0.47663
0.489336
0.497807
0.502043
0.502043
0.497807
0.489336
0.472394
0.455453
0.417334
0.358038
0.311448
0.277564
0.243681
0.197091
0.137795
0.0869697
0.0488507
0.00649637
-0.0273871
-0.0527998
-0.0739769
-0.0866833
-0.0909187
-0.0951541
-0.0993896
-0.103625
-0.10786
-0.112096
-0.116331
-0.120567
-0.120567
-0.124802
-0.124802
-0.124802
-0.124802
-0.124802
-0.120567
-0.120567
-0.116331
-0.116331
-0.112096
-0.112096
-0.112096
-0.112096
-0.112096
-0.10786
-0.10786
-0.103625
-0.103625
-0.0993896
-0.0993896
-0.0951541
-0.0909187
-0.0909187
-0.0909187
-0.0909187
-0.0909187
-0.0951541
-0.0951541
-0.0993896
-0.103625
-0.10786
-0.112096
-0.112096
-0.116331
-0.116331
-0.116331
-0.120567
-0.120567
-0.124802
-0.124802
-0.124802
-0.124802
-0.129038
-0.129038
-0.133273
-0.133273
-0.133273
-0.129038
-0.129038
-0.129038
-0.129038
-0.124802
-0.124802
-0.120567
-0.120567
-0.120567
-0.124802
-0.124802
-0.124802
-0.120567
-0.120567
-0.116331
-0.116331
-0.116331
-0.116331
-0.116331
-0.116331
-0.116331
-0.116331
-0.116331
-0.116331
-0.116331
-0.112096
-0.112096
-0.10786
-0.0993896
-0.0909187
-0.0782124
-0.0612706
-0.0443289
-0.0231517
-0.0019745
0.0192027
0.0530862
0.0954406
0.125089
0.14203
0.150501
0.137795
0.108147
0.0742634
0.0361444
0.0107318
-0.0189162
-0.0612706
-0.112096
-0.150215
-0.162921
-0.171392
-0.179863
-0.184098
-0.188334
-0.188334
-0.184098
-0.179863
-0.171392
-0.162921
-0.158686
-0.150215
-0.141744
-0.129038
-0.112096
-0.103625
-0.0909187
-0.0655061
0.0192027
0.222504
0.561339
1.03571
1.59055
2.10727
2.36987
2.36987
2.09033
1.50584
0.849348
0.269093
-0.116331
-0.285749
-0.34928
-0.366222
-0.374693
-0.383164
-0.39587
-0.357751
-0.311161
-0.273043
-0.273043
-0.315397
-0.357751
-0.39587
-0.412812
-0.400106
-0.374693
-0.357751
-0.34928
-0.345045
-0.340809
-0.336574
-0.332339
-0.328103
-0.323868
-0.315397
-0.306926
-0.302691
-0.29422
-0.289984
-0.281513
-0.273043
-0.268807
-0.260336
-0.24763
-0.230688
-0.213746
-0.196805
-0.179863
-0.162921
-0.15445
-0.141744
-0.133273
-0.124802
-0.116331
-0.10786
-0.0993896
-0.0951541
-0.0909187
-0.0824478
-0.0697415
-0.0527998
-0.0231517
0.00649637
0.0276736
0.0488507
0.0657925
0.0869697
0.108147
0.14203
0.205562
0.264858
0.307212
0.341096
0.374979
0.404628
0.434276
0.451217
0.463924
0.47663
0.489336
0.502043
0.514749
0.52322
0.535926
0.544397
0.552868
0.552868
0.548632
0.535926
0.518984
0.463924
0.362273
0.311448
0.273329
0.243681
0.205562
0.158972
0.0827342
0.0234381
-0.0104454
-0.0316226
-0.0485643
-0.0612706
-0.0824478
-0.10786
-0.129038
-0.137508
-0.137508
-0.141744
-0.145979
-0.145979
-0.150215
-0.15445
-0.15445
-0.158686
-0.162921
-0.162921
-0.162921
-0.162921
-0.162921
-0.162921
-0.162921
-0.162921
-0.167157
-0.171392
-0.171392
-0.175627
-0.175627
-0.171392
-0.167157
-0.167157
-0.162921
-0.158686
-0.150215
-0.141744
-0.137508
-0.137508
-0.145979
-0.158686
-0.171392
-0.175627
-0.184098
-0.188334
-0.196805
-0.20104
-0.205276
-0.209511
-0.213746
-0.217982
-0.222217
-0.222217
-0.217982
-0.213746
-0.213746
-0.209511
-0.209511
-0.209511
-0.205276
-0.20104
-0.196805
-0.192569
-0.192569
-0.192569
-0.184098
-0.179863
-0.171392
-0.167157
-0.167157
-0.175627
-0.179863
-0.188334
-0.196805
-0.205276
-0.226453
-0.226453
-0.213746
-0.205276
-0.196805
-0.188334
-0.184098
-0.179863
-0.175627
-0.171392
-0.167157
-0.158686
-0.15445
-0.150215
-0.150215
-0.150215
-0.158686
-0.162921
-0.167157
-0.171392
-0.179863
-0.188334
-0.192569
-0.192569
-0.179863
-0.162921
-0.145979
-0.129038
-0.103625
-0.0824478
-0.0570352
-0.035858
-0.0231517
-0.0104454
0.00226094
0.0107318
0.0192027
0.0234381
0.031909
0.0361444
0.0403799
0.0446153
0.0573216
0.0742634
0.0700279
0.0361444
0.00226094
-0.0273871
-0.0443289
-0.0612706
-0.0909187
-0.137508
-0.162921
-0.175627
-0.184098
-0.192569
-0.20104
-0.20104
-0.205276
-0.20104
-0.20104
-0.196805
-0.192569
-0.188334
-0.184098
-0.171392
-0.167157
-0.184098
-0.213746
-0.213746
-0.133273
0.0446153
0.341096
0.760404
1.2983
1.90397
2.45034
2.696
2.67482
2.31481
1.63714
0.883232
0.230975
-0.175627
-0.285749
-0.315397
-0.332339
-0.345045
-0.357751
-0.370458
-0.383164
-0.400106
-0.421283
-0.459402
-0.472108
-0.484814
-0.48905
-0.493285
-0.480579
-0.459402
-0.433989
-0.404341
-0.374693
-0.361987
-0.353516
-0.34928
-0.340809
-0.336574
-0.328103
-0.323868
-0.315397
-0.306926
-0.298455
-0.285749
-0.277278
-0.264572
-0.260336
-0.251865
-0.243394
-0.234924
-0.222217
-0.213746
-0.205276
-0.196805
-0.188334
-0.175627
-0.167157
-0.158686
-0.150215
-0.145979
-0.137508
-0.124802
-0.0993896
-0.0782124
-0.0612706
-0.0443289
-0.0189162
0.0276736
0.0573216
0.0700279
0.0827342
0.103911
0.120853
0.146266
0.192856
0.256387
0.290271
0.307212
0.32839
0.353802
0.38345
0.408863
0.434276
0.455453
0.468159
0.47663
0.485101
0.493572
0.506278
0.514749
0.514749
0.497807
0.468159
0.434276
0.387686
0.349567
0.311448
0.273329
0.230975
0.184385
0.137795
0.0784988
0.0361444
0.00649637
-0.0231517
-0.0570352
-0.0909187
-0.10786
-0.120567
-0.133273
-0.141744
-0.15445
-0.162921
-0.171392
-0.175627
-0.179863
-0.184098
-0.184098
-0.188334
-0.188334
-0.184098
-0.179863
-0.175627
-0.175627
-0.171392
-0.171392
-0.171392
-0.171392
-0.171392
-0.175627
-0.167157
-0.15445
-0.145979
-0.133273
-0.124802
-0.116331
-0.116331
-0.120567
-0.129038
-0.137508
-0.141744
-0.145979
-0.15445
-0.158686
-0.167157
-0.167157
-0.171392
-0.171392
-0.171392
-0.175627
-0.175627
-0.175627
-0.175627
-0.171392
-0.167157
-0.167157
-0.167157
-0.162921
-0.158686
-0.15445
-0.15445
-0.158686
-0.158686
-0.15445
-0.145979
-0.137508
-0.129038
-0.120567
-0.120567
-0.112096
-0.10786
-0.0951541
-0.0866833
-0.0782124
-0.0739769
-0.0739769
-0.0739769
-0.0739769
-0.0782124
-0.0824478
-0.0909187
-0.103625
-0.112096
-0.120567
-0.129038
-0.137508
-0.145979
-0.162921
-0.171392
-0.175627
-0.171392
-0.15445
-0.141744
-0.129038
-0.120567
-0.112096
-0.103625
-0.0951541
-0.0866833
-0.0782124
-0.0739769
-0.0697415
-0.0655061
-0.0612706
-0.0527998
-0.0485643
-0.0443289
-0.0443289
-0.0400934
-0.0400934
-0.035858
-0.0316226
-0.0273871
-0.0189162
-0.0104454
0.0107318
0.0488507
0.0869697
0.120853
0.150501
0.167443
0.184385
0.197091
0.214033
0.205562
0.14203
0.0869697
0.0403799
0.00649637
-0.0146808
-0.0273871
-0.035858
-0.0443289
-0.0485643
-0.0570352
-0.0655061
-0.0697415
-0.0739769
-0.0739769
-0.0739769
-0.0655061
-0.0612706
-0.0527998
-0.0485643
-0.0443289
-0.035858
-0.0273871
-0.0146808
0.00226094
0.0192027
0.0530862
0.171678
0.434276
0.811229
1.2983
1.83621
2.31481
2.54352
2.52658
2.23434
1.65408
1.00182
0.442746
0.0657925
-0.0739769
-0.116331
-0.145979
-0.167157
-0.188334
-0.217982
-0.256101
-0.256101
-0.226453
-0.20104
-0.179863
-0.162921
-0.150215
-0.15445
-0.162921
-0.179863
-0.192569
-0.209511
-0.217982
-0.196805
-0.162921
-0.150215
-0.141744
-0.133273
-0.124802
-0.120567
-0.112096
-0.103625
-0.0951541
-0.0866833
-0.0824478
-0.0739769
-0.0697415
-0.0655061
-0.0612706
-0.0570352
-0.0527998
-0.0443289
-0.0316226
-0.0231517
-0.0146808
-0.0019745
0.0107318
0.0234381
0.0361444
0.0488507
0.0615571
0.0742634
0.0869697
0.108147
0.125089
0.14203
0.154737
0.171678
0.184385
0.201326
0.218268
0.230975
0.252152
0.273329
0.302977
0.332625
0.362273
0.391921
0.417334
0.442746
0.463924
0.485101
0.506278
0.52322
0.535926
0.552868
0.565574
0.574045
0.582516
0.582516
0.57828
0.56981
0.557103
0.535926
0.506278
0.434276
0.366509
0.315683
0.269093
0.209797
0.125089
0.0530862
0.00226094
-0.0104454
-0.0189162
-0.0231517
-0.0273871
-0.0273871
-0.0316226
-0.035858
-0.0400934
-0.0527998
-0.0655061
-0.0782124
-0.0866833
-0.0951541
-0.103625
-0.112096
-0.120567
-0.129038
-0.129038
-0.129038
-0.124802
-0.124802
-0.120567
-0.120567
-0.120567
-0.116331
-0.112096
-0.10786
-0.103625
-0.0993896
-0.0951541
-0.0909187
-0.0866833
-0.0866833
-0.0866833
-0.0866833
-0.0909187
-0.0909187
-0.0951541
-0.0951541
-0.0951541
-0.0993896
-0.0993896
-0.103625
-0.103625
-0.0993896
-0.0993896
-0.0993896
-0.0993896
-0.0993896
-0.103625
-0.103625
-0.103625
-0.103625
-0.10786
-0.10786
-0.10786
-0.112096
-0.10786
-0.10786
-0.103625
-0.103625
-0.10786
-0.10786
-0.103625
-0.103625
-0.0993896
-0.0951541
-0.0951541
-0.0951541
-0.0951541
-0.0951541
-0.0951541
-0.0909187
-0.0909187
-0.0909187
-0.0909187
-0.0866833
-0.0782124
-0.0951541
-0.10786
-0.116331
-0.124802
-0.129038
-0.129038
-0.129038
-0.124802
-0.120567
-0.112096
-0.103625
-0.0951541
-0.0866833
-0.0824478
-0.0782124
-0.0782124
-0.0739769
-0.0739769
-0.0697415
-0.0655061
-0.0612706
-0.0570352
-0.0527998
-0.0485643
-0.0443289
-0.0443289
-0.0400934
-0.035858
-0.0316226
-0.0316226
-0.0273871
-0.0189162
-0.0104454
0.00226094
0.0234381
0.0700279
0.112382
0.14203
0.158972
0.175914
0.184385
0.18862
0.180149
0.163208
0.14203
0.112382
0.0827342
0.0361444
0.00226094
-0.0273871
-0.0400934
-0.0485643
-0.0612706
-0.0697415
-0.0782124
-0.0866833
-0.0909187
-0.0951541
-0.0993896
-0.0993896
-0.0993896
-0.0951541
-0.0909187
-0.0866833
-0.0782124
-0.0697415
-0.0527998
-0.035858
-0.0189162
0.0700279
0.252152
0.527455
0.908645
1.38301
1.87856
2.27246
2.41646
2.23434
1.7515
1.07806
0.391921
-0.120567
-0.302691
-0.361987
-0.306926
-0.251865
-0.209511
-0.188334
-0.196805
-0.209511
-0.217982
-0.226453
-0.230688
-0.234924
-0.234924
-0.234924
-0.234924
-0.239159
-0.239159
-0.234924
-0.230688
-0.217982
-0.205276
-0.196805
-0.192569
-0.188334
-0.184098
-0.175627
-0.167157
-0.158686
-0.150215
-0.145979
-0.137508
-0.129038
-0.124802
-0.116331
-0.10786
-0.0993896
-0.0909187
-0.0824478
-0.0782124
-0.0697415
-0.0612706
-0.0527998
-0.0443289
-0.035858
-0.0273871
-0.0189162
-0.00620994
0.00649637
0.0149672
0.0276736
0.0403799
0.0530862
0.0742634
0.103911
0.137795
0.163208
0.184385
0.201326
0.222504
0.243681
0.264858
0.290271
0.315683
0.336861
0.366509
0.396157
0.421569
0.451217
0.472394
0.489336
0.502043
0.514749
0.527455
0.535926
0.535926
0.535926
0.527455
0.518984
0.506278
0.489336
0.463924
0.425805
0.396157
0.358038
0.311448
0.260623
0.209797
0.163208
0.103911
0.0530862
0.0149672
-0.0189162
-0.0485643
-0.0824478
-0.10786
-0.120567
-0.124802
-0.129038
-0.133273
-0.137508
-0.137508
-0.137508
-0.137508
-0.137508
-0.141744
-0.145979
-0.150215
-0.15445
-0.158686
-0.167157
-0.171392
-0.175627
-0.184098
-0.188334
-0.192569
-0.192569
-0.196805
-0.20104
-0.205276
-0.209511
-0.213746
-0.217982
-0.222217
-0.226453
-0.230688
-0.230688
-0.234924
-0.234924
-0.234924
-0.239159
-0.239159
-0.239159
-0.239159
-0.239159
-0.243394
-0.243394
-0.24763
-0.251865
-0.251865
-0.251865
-0.256101
-0.260336
-0.264572
-0.268807
-0.268807
-0.273043
-0.273043
-0.281513
-0.289984
-0.298455
-0.306926
-0.311161
-0.306926
-0.298455
-0.285749
-0.277278
-0.268807
-0.264572
-0.256101
-0.251865
-0.243394
-0.239159
-0.234924
-0.234924
-0.234924
-0.230688
-0.226453
-0.226453
-0.222217
-0.222217
-0.222217
-0.222217
-0.222217
-0.217982
-0.217982
-0.213746
-0.213746
-0.213746
-0.213746
-0.213746
-0.213746
-0.213746
-0.213746
-0.213746
-0.213746
-0.213746
-0.213746
-0.209511
-0.209511
-0.205276
-0.20104
-0.20104
-0.20104
-0.196805
-0.196805
-0.192569
-0.192569
-0.188334
-0.188334
-0.188334
-0.184098
-0.179863
-0.171392
-0.162921
-0.15445
-0.141744
-0.120567
-0.0824478
-0.0527998
-0.035858
-0.0231517
-0.0146808
-0.00620994
-0.00620994
-0.0146808
-0.0273871
-0.035858
-0.0485643
-0.0612706
-0.0782124
-0.0951541
-0.116331
-0.150215
-0.175627
-0.192569
-0.209511
-0.226453
-0.243394
-0.260336
-0.268807
-0.273043
-0.277278
-0.277278
-0.281513
-0.281513
-0.285749
-0.285749
-0.281513
-0.285749
-0.289984
-0.285749
-0.251865
-0.158686
0.00226094
0.273329
0.675695
1.19665
1.76844
2.25128
2.48846
2.37834
1.92938
1.26442
0.56981
0.0446153
-0.167157
-0.239159
-0.273043
-0.285749
-0.336574
-0.450931
-0.493285
-0.493285
-0.455166
-0.433989
-0.417047
-0.404341
-0.391635
-0.378928
-0.370458
-0.361987
-0.353516
-0.345045
-0.332339
-0.319632
-0.306926
-0.298455
-0.29422
-0.285749
-0.277278
-0.268807
-0.256101
-0.24763
-0.239159
-0.234924
-0.230688
-0.222217
-0.217982
-0.209511
-0.205276
-0.196805
-0.192569
-0.184098
-0.175627
-0.167157
-0.158686
-0.150215
-0.141744
-0.129038
-0.112096
-0.0951541
-0.0824478
-0.0655061
-0.0485643
-0.0146808
0.0403799
0.0700279
0.0869697
0.0954406
0.108147
0.116618
0.129324
0.146266
0.167443
0.192856
0.222504
0.252152
0.286035
0.32839
0.366509
0.413098
0.47663
0.518984
0.540161
0.557103
0.574045
0.586751
0.603693
0.641812
0.675695
0.688402
0.692637
0.692637
0.667225
0.646047
0.62487
0.599458
0.56981
0.527455
0.455453
0.379215
0.315683
0.273329
0.222504
0.175914
0.120853
0.0700279
0.0276736
-0.00620994
-0.0273871
-0.035858
-0.0443289
-0.0527998
-0.0570352
-0.0655061
-0.0697415
-0.0697415
-0.0697415
-0.0697415
-0.0739769
-0.0739769
-0.0782124
-0.0824478
-0.0824478
-0.0866833
-0.0909187
-0.0951541
-0.0951541
-0.0993896
-0.0951541
-0.0951541
-0.0909187
-0.0909187
-0.0909187
-0.0909187
-0.0909187
-0.0909187
-0.0866833
-0.0866833
-0.0866833
-0.0824478
-0.0824478
-0.0782124
-0.0739769
-0.0739769
-0.0697415
-0.0655061
-0.0612706
-0.0612706
-0.0570352
-0.0527998
-0.0527998
-0.0527998
-0.0527998
-0.0527998
-0.0570352
-0.0570352
-0.0612706
-0.0655061
-0.0697415
-0.0739769
-0.0739769
-0.0739769
-0.0739769
-0.0782124
-0.0824478
-0.0866833
-0.0909187
-0.0951541
-0.112096
-0.112096
-0.0951541
-0.0824478
-0.0782124
-0.0697415
-0.0612706
-0.0570352
-0.0527998
-0.0527998
-0.0485643
-0.0443289
-0.035858
-0.0655061
-0.0909187
-0.103625
-0.116331
-0.124802
-0.129038
-0.129038
-0.129038
-0.124802
-0.120567
-0.112096
-0.10786
-0.103625
-0.0993896
-0.0951541
-0.0909187
-0.0909187
-0.0909187
-0.0909187
-0.0866833
-0.0824478
-0.0782124
-0.0697415
-0.0655061
-0.0655061
-0.0612706
-0.0612706
-0.0612706
-0.0570352
-0.0527998
-0.0485643
-0.0443289
-0.0400934
-0.0273871
-0.0189162
-0.0316226
-0.0527998
-0.0697415
-0.0866833
-0.103625
-0.112096
-0.10786
-0.0993896
-0.0866833
-0.0655061
-0.035858
0.00226094
0.0192027
0.0234381
0.031909
0.0361444
0.0403799
0.0403799
0.0446153
0.0446153
0.0446153
0.0446153
0.0446153
0.0446153
0.0403799
0.031909
0.0276736
0.0234381
0.0192027
0.00649637
0.00649637
0.0403799
0.0700279
0.099676
0.120853
0.14203
0.163208
0.192856
0.214033
0.230975
0.247916
0.256387
0.243681
0.214033
0.171678
0.112382
0.0742634
0.0530862
0.031909
0.0107318
-0.0104454
-0.035858
-0.0739769
-0.0824478
-0.0866833
-0.0909187
-0.0951541
-0.0951541
-0.0951541
-0.0951541
-0.0951541
-0.0951541
-0.0951541
-0.0909187
-0.0782124
-0.0655061
-0.0485643
0.0149672
0.243681
0.599458
1.07806
1.66255
2.28093
2.77647
2.98824
2.79765
2.24281
1.47619
0.713814
0.133559
-0.196805
-0.24763
-0.256101
-0.264572
-0.268807
-0.273043
-0.277278
-0.277278
-0.277278
-0.281513
-0.281513
-0.285749
-0.289984
-0.289984
-0.289984
-0.289984
-0.289984
-0.289984
-0.289984
-0.289984
-0.289984
-0.29422
-0.29422
-0.298455
-0.302691
-0.302691
-0.302691
-0.302691
-0.302691
-0.302691
-0.298455
-0.29422
-0.289984
-0.281513
-0.273043
-0.264572
-0.256101
-0.251865
-0.24763
-0.243394
-0.234924
-0.230688
-0.222217
-0.213746
-0.205276
-0.196805
-0.192569
-0.184098
-0.175627
-0.167157
-0.15445
-0.133273
-0.0866833
-0.0570352
-0.0146808
0.0361444
0.0784988
0.129324
0.180149
0.214033
0.252152
0.277564
0.294506
0.311448
0.332625
0.353802
0.379215
0.417334
0.459688
0.510513
0.552868
0.561339
0.565574
0.56981
0.56981
0.574045
0.565574
0.548632
0.527455
0.506278
0.47663
0.446982
0.417334
0.379215
0.336861
0.290271
0.247916
0.214033
0.175914
0.14203
0.099676
0.0488507
0.0107318
-0.0231517
-0.0485643
-0.0782124
-0.10786
-0.124802
-0.133273
-0.137508
-0.141744
-0.145979
-0.150215
-0.15445
-0.15445
-0.158686
-0.162921
-0.162921
-0.167157
-0.171392
-0.175627
-0.179863
-0.179863
-0.184098
-0.184098
-0.188334
-0.188334
-0.188334
-0.188334
-0.188334
-0.192569
-0.20104
-0.213746
-0.209511
-0.192569
-0.175627
-0.167157
-0.158686
-0.15445
-0.145979
-0.137508
-0.133273
-0.124802
-0.120567
-0.120567
-0.120567
-0.120567
-0.124802
-0.133273
-0.137508
-0.145979
-0.150215
-0.158686
-0.162921
-0.167157
-0.171392
-0.175627
-0.179863
-0.184098
-0.188334
-0.192569
-0.20104
-0.205276
-0.205276
-0.209511
-0.213746
-0.217982
-0.217982
-0.213746
-0.209511
-0.205276
-0.205276
-0.205276
-0.205276
-0.205276
-0.20104
-0.20104
-0.205276
-0.205276
-0.213746
-0.217982
-0.222217
-0.230688
-0.24763
-0.268807
-0.239159
-0.217982
-0.205276
-0.192569
-0.184098
-0.179863
-0.179863
-0.184098
-0.188334
-0.192569
-0.196805
-0.20104
-0.20104
-0.205276
-0.213746
-0.217982
-0.213746
-0.209511
-0.196805
-0.184098
-0.179863
-0.175627
-0.171392
-0.171392
-0.162921
-0.158686
-0.15445
-0.15445
-0.150215
-0.150215
-0.145979
-0.141744
-0.137508
-0.137508
-0.133273
-0.133273
-0.133273
-0.133273
-0.133273
-0.133273
-0.129038
-0.129038
-0.124802
-0.120567
-0.112096
-0.103625
-0.0951541
-0.0866833
-0.0782124
-0.0697415
-0.0612706
-0.0485643
-0.0400934
-0.0316226
-0.0189162
-0.0104454
0.00649637
0.0234381
0.0403799
0.0530862
0.0615571
0.0530862
0.0446153
0.0276736
0.00226094
-0.0273871
-0.0739769
-0.120567
-0.145979
-0.162921
-0.175627
-0.188334
-0.20104
-0.205276
-0.205276
-0.205276
-0.20104
-0.192569
-0.188334
-0.179863
-0.167157
-0.158686
-0.162921
-0.179863
-0.205276
-0.226453
-0.196805
-0.103625
0.099676
0.446982
0.942528
1.53549
2.12845
2.56894
2.73412
2.54776
2.04374
1.3576
0.654518
0.103911
-0.209511
-0.256101
-0.264572
-0.277278
-0.281513
-0.285749
-0.289984
-0.289984
-0.285749
-0.285749
-0.281513
-0.277278
-0.268807
-0.260336
-0.251865
-0.24763
-0.243394
-0.239159
-0.230688
-0.217982
-0.205276
-0.196805
-0.188334
-0.179863
-0.175627
-0.171392
-0.162921
-0.162921
-0.158686
-0.158686
-0.15445
-0.150215
-0.145979
-0.141744
-0.137508
-0.133273
-0.124802
-0.116331
-0.103625
-0.0909187
-0.0824478
-0.0697415
-0.0612706
-0.0485643
-0.035858
-0.0273871
-0.0146808
-0.0019745
0.0107318
0.0234381
0.0361444
0.0488507
0.0615571
0.0742634
0.0869697
0.108147
0.125089
0.146266
0.163208
0.184385
0.218268
0.264858
0.311448
0.358038
0.404628
0.446982
0.480865
0.514749
0.540161
0.561339
0.574045
0.582516
0.590987
0.595222
0.603693
0.603693
0.603693
0.603693
0.599458
0.590987
0.574045
0.557103
0.535926
0.506278
0.451217
0.400392
0.345331
0.294506
0.247916
0.18862
0.108147
0.0530862
0.0234381
0.00226094
-0.0189162
-0.035858
-0.0527998
-0.0655061
-0.0739769
-0.0824478
-0.0909187
-0.0993896
-0.103625
-0.103625
-0.0993896
-0.0951541
-0.0909187
-0.0824478
-0.0824478
-0.0782124
-0.0739769
-0.0697415
-0.0655061
-0.0655061
-0.0655061
-0.0655061
-0.0655061
-0.0655061
-0.0655061
-0.0655061
-0.0697415
-0.0739769
-0.0739769
-0.0782124
-0.0782124
-0.0782124
-0.0782124
-0.0782124
-0.0824478
-0.0824478
-0.0866833
-0.0866833
-0.0909187
-0.0951541
-0.0951541
-0.0993896
-0.0993896
-0.0993896
-0.0993896
-0.0993896
-0.0993896
-0.0993896
-0.0993896
-0.0993896
-0.0993896
-0.0993896
-0.0993896
-0.103625
-0.103625
-0.10786
-0.10786
-0.10786
-0.10786
-0.10786
-0.10786
-0.10786
-0.10786
-0.10786
-0.10786
-0.10786
-0.10786
-0.103625
-0.0993896
-0.0993896
-0.0951541
-0.0909187
-0.0909187
-0.0866833
-0.0824478
-0.0739769
-0.0697415
-0.0655061
-0.0612706
-0.0612706
-0.0570352
-0.0527998
-0.0443289
-0.0400934
-0.0443289
-0.0527998
-0.0612706
-0.0739769
-0.0824478
-0.0866833
-0.0951541
-0.103625
-0.112096
-0.120567
-0.124802
-0.129038
-0.129038
-0.129038
-0.129038
-0.129038
-0.124802
-0.120567
-0.116331
-0.10786
-0.103625
-0.0951541
-0.0866833
-0.0782124
-0.0697415
-0.0570352
-0.0443289
-0.035858
-0.0273871
-0.0104454
0.00226094
0.0234381
0.0573216
0.0784988
0.0784988
0.0784988
0.0784988
0.0827342
0.0827342
0.0573216
0.0149672
-0.0146808
-0.0316226
-0.0485643
-0.0655061
-0.0824478
-0.0993896
-0.116331
-0.133273
-0.150215
-0.167157
-0.184098
-0.196805
-0.209511
-0.217982
-0.222217
-0.222217
-0.222217
-0.217982
-0.213746
-0.205276
-0.188334
-0.167157
-0.0824478
0.175914
0.557103
1.04418
1.57784
2.03527
2.25128
2.23434
1.95056
1.39572
0.781581
0.252152
-0.0866833
-0.167157
-0.188334
-0.205276
-0.213746
-0.222217
-0.234924
-0.24763
-0.260336
-0.268807
-0.281513
-0.298455
-0.328103
-0.34928
-0.345045
-0.323868
-0.29422
-0.277278
-0.260336
-0.251865
-0.239159
-0.230688
-0.222217
-0.213746
-0.205276
-0.192569
-0.184098
-0.171392
-0.162921
-0.15445
-0.150215
-0.145979
-0.141744
-0.137508
-0.133273
-0.129038
-0.120567
-0.112096
-0.10786
-0.103625
-0.0951541
-0.0909187
-0.0866833
-0.0824478
-0.0782124
-0.0697415
-0.0612706
-0.0527998
-0.0400934
-0.0189162
0.00649637
0.031909
0.0615571
0.0827342
0.099676
0.120853
0.137795
0.150501
0.158972
0.167443
0.171678
0.184385
0.197091
0.218268
0.247916
0.286035
0.324154
0.366509
0.408863
0.438511
0.463924
0.480865
0.493572
0.502043
0.510513
0.514749
0.52322
0.527455
0.531691
0.535926
0.544397
0.548632
0.540161
0.510513
0.472394
0.404628
0.32839
0.247916
0.158972
0.0784988
0.00649637
-0.0527998
-0.0782124
-0.0866833
-0.0909187
-0.0993896
-0.103625
-0.10786
-0.116331
-0.120567
-0.124802
-0.129038
-0.129038
-0.133273
-0.133273
-0.133273
-0.129038
-0.129038
-0.124802
-0.124802
-0.124802
-0.120567
-0.120567
-0.116331
-0.116331
-0.116331
-0.116331
-0.112096
-0.10786
-0.103625
-0.103625
-0.0993896
-0.0993896
-0.0993896
-0.0951541
-0.0909187
-0.0866833
-0.0824478
-0.0782124
-0.0655061
-0.0612706
-0.0697415
-0.0909187
-0.0993896
-0.10786
-0.112096
-0.116331
-0.120567
-0.124802
-0.124802
-0.129038
-0.129038
-0.129038
-0.129038
-0.129038
-0.129038
-0.129038
-0.129038
-0.133273
-0.133273
-0.137508
-0.141744
-0.145979
-0.145979
-0.145979
-0.145979
-0.150215
-0.150215
-0.15445
-0.158686
-0.158686
-0.158686
-0.167157
-0.175627
-0.184098
-0.192569
-0.196805
-0.188334
-0.179863
-0.167157
-0.15445
-0.145979
-0.137508
-0.124802
-0.116331
-0.10786
-0.103625
-0.103625
-0.103625
-0.10786
-0.116331
-0.120567
-0.124802
-0.133273
-0.141744
-0.15445
-0.171392
-0.188334
-0.209511
-0.234924
-0.234924
-0.192569
-0.167157
-0.145979
-0.129038
-0.112096
-0.0951541
-0.0824478
-0.0697415
-0.0527998
-0.0400934
-0.0231517
-0.00620994
0.00649637
0.0276736
0.0657925
0.108147
0.129324
0.14203
0.137795
0.099676
0.0573216
0.0107318
-0.0146808
-0.0443289
-0.0993896
-0.129038
-0.141744
-0.15445
-0.167157
-0.175627
-0.184098
-0.188334
-0.192569
-0.192569
-0.192569
-0.192569
-0.192569
-0.192569
-0.188334
-0.179863
-0.171392
-0.162921
-0.15445
-0.141744
-0.0909187
0.0530862
0.294506
0.662989
1.15006
1.72185
2.25128
2.51388
2.50117
2.1708
1.5482
0.862055
0.260623
-0.120567
-0.239159
-0.277278
-0.298455
-0.306926
-0.311161
-0.315397
-0.319632
-0.319632
-0.319632
-0.319632
-0.319632
-0.323868
-0.319632
-0.319632
-0.323868
-0.328103
-0.328103
-0.323868
-0.319632
-0.315397
-0.315397
-0.311161
-0.311161
-0.306926
-0.302691
-0.29422
-0.285749
-0.281513
-0.277278
-0.268807
-0.260336
-0.251865
-0.243394
-0.234924
-0.222217
-0.213746
-0.205276
-0.196805
-0.188334
-0.184098
-0.175627
-0.171392
-0.162921
-0.158686
-0.15445
-0.150215
-0.141744
-0.133273
-0.120567
-0.0866833
-0.0316226
0.00226094
0.0234381
0.0361444
0.0530862
0.0700279
0.0869697
0.112382
0.150501
0.175914
0.197091
0.218268
0.239445
0.273329
0.319919
0.38345
0.421569
0.446982
0.468159
0.489336
0.510513
0.527455
0.540161
0.552868
0.565574
0.56981
0.56981
0.565574
0.552868
0.540161
0.52322
0.497807
0.459688
0.421569
0.379215
0.341096
0.298742
0.239445
0.171678
0.099676
0.0361444
-0.0019745
-0.0273871
-0.0400934
-0.0570352
-0.0697415
-0.0782124
-0.0866833
-0.0951541
-0.0993896
-0.10786
-0.112096
-0.112096
-0.116331
-0.120567
-0.129038
-0.133273
-0.137508
-0.137508
-0.133273
-0.124802
-0.116331
-0.112096
-0.103625
-0.0951541
-0.0866833
-0.0866833
-0.0866833
-0.0909187
-0.0951541
-0.0993896
-0.103625
-0.10786
-0.112096
-0.116331
-0.116331
-0.112096
-0.10786
-0.0993896
-0.0909187
-0.0782124
-0.0697415
-0.0655061
-0.0782124
-0.0993896
-0.124802
-0.158686
-0.184098
-0.20104
-0.217982
-0.230688
-0.234924
-0.234924
-0.226453
-0.217982
-0.213746
-0.209511
-0.205276
-0.20104
-0.20104
-0.20104
-0.196805
-0.196805
-0.196805
-0.20104
-0.20104
-0.205276
-0.209511
-0.213746
-0.217982
-0.226453
-0.234924
-0.243394
-0.24763
-0.24763
-0.243394
-0.234924
-0.226453
-0.222217
-0.217982
-0.209511
-0.205276
-0.20104
-0.196805
-0.192569
-0.188334
-0.188334
-0.188334
-0.188334
-0.192569
-0.196805
-0.196805
-0.20104
-0.20104
-0.20104
-0.20104
-0.20104
-0.20104
-0.20104
-0.196805
-0.196805
-0.20104
-0.205276
-0.205276
-0.209511
-0.205276
-0.196805
-0.188334
-0.179863
-0.171392
-0.167157
-0.158686
-0.15445
-0.150215
-0.150215
-0.145979
-0.141744
-0.137508
-0.133273
-0.129038
-0.124802
-0.120567
-0.112096
-0.10786
-0.0993896
-0.0909187
-0.0782124
-0.0570352
-0.0316226
-0.0146808
0.0107318
0.0573216
0.0954406
0.108147
0.116618
0.112382
0.0742634
0.0192027
-0.0400934
-0.0993896
-0.15445
-0.179863
-0.188334
-0.20104
-0.209511
-0.217982
-0.226453
-0.234924
-0.234924
-0.234924
-0.239159
-0.239159
-0.234924
-0.230688
-0.226453
-0.217982
-0.209511
-0.20104
-0.188334
-0.175627
-0.112096
0.0615571
0.332625
0.71805
1.20089
1.74726
2.2894
2.68753
2.80189
2.53929
1.93786
1.1543
0.404628
-0.162921
-0.44246
-0.48905
-0.433989
-0.311161
-0.217982
-0.179863
-0.179863
-0.209511
-0.251865
-0.311161
-0.357751
-0.387399
-0.387399
-0.353516
-0.315397
-0.277278
-0.251865
-0.243394
-0.234924
-0.230688
-0.226453
-0.217982
-0.209511
-0.20104
-0.192569
-0.179863
-0.167157
-0.150215
-0.124802
-0.103625
-0.0866833
-0.0782124
-0.0739769
-0.0655061
-0.0612706
-0.0570352
-0.0570352
-0.0527998
-0.0527998
-0.0527998
-0.0570352
-0.0570352
-0.0612706
-0.0655061
-0.0697415
-0.0739769
-0.0782124
-0.0824478
-0.0866833
-0.0824478
-0.0697415
-0.0443289
-0.0104454
0.0615571
0.116618
0.150501
0.171678
0.18862
0.209797
0.23521
0.277564
0.324154
0.366509
0.396157
0.425805
0.455453
0.497807
0.544397
0.586751
0.616399
0.637577
0.650283
0.662989
0.67146
0.679931
0.688402
0.692637
0.705344
0.709579
0.713814
0.705344
0.684166
0.654518
0.603693
0.527455
0.463924
0.396157
0.319919
0.247916
0.180149
0.112382
0.0784988
0.0615571
0.0488507
0.0361444
0.0276736
0.0149672
0.00226094
-0.00620994
-0.0146808
-0.0189162
-0.0273871
-0.0316226
-0.0316226
-0.0316226
-0.0316226
-0.035858
-0.035858
-0.0400934
-0.0400934
-0.0443289
-0.0443289
-0.0485643
-0.0485643
-0.0485643
-0.0485643
-0.0485643
-0.0443289
-0.0400934
-0.0400934
-0.035858
-0.035858
-0.0400934
-0.0443289
-0.0443289
-0.0443289
-0.0443289
-0.0443289
-0.0485643
-0.0485643
-0.0527998
-0.0527998
-0.0527998
-0.0527998
-0.0527998
-0.0527998
-0.0527998
-0.0570352
-0.0570352
-0.0570352
-0.0612706
-0.0655061
-0.0739769
-0.0782124
-0.0782124
-0.0782124
-0.0782124
-0.0824478
-0.0824478
-0.0866833
-0.0866833
-0.0866833
-0.0909187
-0.0909187
-0.0951541
-0.0993896
-0.103625
-0.103625
-0.0993896
-0.0993896
-0.0993896
-0.103625
-0.103625
-0.0993896
-0.0993896
-0.0993896
-0.0993896
-0.0993896
-0.0993896
-0.0993896
-0.0993896
-0.0993896
-0.0993896
-0.103625
-0.103625
-0.103625
-0.103625
-0.0993896
-0.0993896
-0.103625
-0.103625
-0.103625
-0.103625
-0.103625
-0.10786
-0.10786
-0.112096
-0.116331
-0.116331
-0.116331
-0.116331
-0.116331
-0.120567
-0.124802
-0.124802
-0.129038
-0.129038
-0.133273
-0.141744
-0.145979
-0.150215
-0.15445
-0.15445
-0.15445
-0.15445
-0.15445
-0.150215
-0.145979
-0.133273
-0.120567
-0.112096
-0.103625
-0.0951541
-0.0824478
-0.0655061
-0.0485643
-0.035858
-0.0316226
-0.0273871
-0.0231517
-0.0189162
-0.0104454
-0.0019745
0.0107318
0.0276736
0.0488507
0.0657925
0.0827342
0.099676
0.103911
0.0954406
0.0784988
0.0615571
0.0361444
0.00226094
-0.0316226
-0.0655061
-0.0951541
-0.10786
-0.112096
-0.116331
-0.116331
-0.120567
-0.120567
-0.124802
-0.124802
-0.129038
-0.133273
-0.137508
-0.145979
-0.150215
-0.15445
-0.167157
-0.192569
-0.158686
-0.0697415
0.133559
0.438511
0.845113
1.34066
1.87856
2.34869
2.55623
2.53082
2.20045
1.59902
0.942528
0.391921
0.0234381
-0.167157
-0.230688
-0.239159
-0.24763
-0.256101
-0.260336
-0.268807
-0.268807
-0.268807
-0.268807
-0.268807
-0.268807
-0.260336
-0.251865
-0.243394
-0.230688
-0.222217
-0.213746
-0.209511
-0.20104
-0.192569
-0.184098
-0.175627
-0.171392
-0.162921
-0.15445
-0.145979
-0.137508
-0.133273
-0.129038
-0.124802
-0.120567
-0.116331
-0.112096
-0.10786
-0.103625
-0.0993896
-0.0951541
-0.0909187
-0.0824478
-0.0739769
-0.0655061
-0.0612706
-0.0527998
-0.0443289
-0.035858
-0.0316226
-0.0146808
0.00649637
0.031909
0.0488507
0.0657925
0.0827342
0.099676
0.120853
0.14203
0.163208
0.180149
0.209797
0.243681
0.290271
0.32839
0.358038
0.38345
0.404628
0.43004
0.459688
0.497807
0.527455
0.548632
0.56981
0.582516
0.599458
0.612164
0.62487
0.641812
0.654518
0.650283
0.629106
0.595222
0.557103
0.502043
0.446982
0.391921
0.341096
0.298742
0.256387
0.209797
0.163208
0.120853
0.0784988
0.0192027
-0.0104454
-0.0273871
-0.035858
-0.0485643
-0.0570352
-0.0655061
-0.0739769
-0.0782124
-0.0824478
-0.0866833
-0.0909187
-0.0951541
-0.0993896
-0.0993896
-0.0993896
-0.0951541
-0.0951541
-0.0909187
-0.0909187
-0.0866833
-0.0866833
-0.0866833
-0.0866833
-0.0909187
-0.0909187
-0.0909187
-0.0909187
-0.0909187
-0.0951541
-0.0951541
-0.0951541
-0.0993896
-0.0993896
-0.0993896
-0.0993896
-0.0993896
-0.0993896
-0.103625
-0.10786
-0.10786
-0.112096
-0.112096
-0.116331
-0.116331
-0.120567
-0.120567
-0.120567
-0.120567
-0.116331
-0.116331
-0.116331
-0.116331
-0.120567
-0.120567
-0.120567
-0.120567
-0.124802
-0.124802
-0.124802
-0.124802
-0.124802
-0.124802
-0.124802
-0.124802
-0.124802
-0.124802
-0.124802
-0.129038
-0.129038
-0.133273
-0.137508
-0.137508
-0.137508
-0.133273
-0.133273
-0.129038
-0.129038
-0.124802
-0.116331
-0.112096
-0.112096
-0.10786
-0.10786
-0.10786
-0.10786
-0.103625
-0.103625
-0.103625
-0.103625
-0.103625
-0.103625
-0.0951541
-0.0909187
-0.0866833
-0.0866833
-0.0951541
-0.0993896
-0.103625
-0.10786
-0.112096
-0.120567
-0.129038
-0.137508
-0.141744
-0.137508
-0.120567
-0.0951541
-0.0782124
-0.0612706
-0.0443289
-0.0273871
-0.00620994
0.0149672
0.031909
0.0530862
0.0700279
0.0869697
0.108147
0.116618
0.103911
0.0784988
0.0488507
0.0107318
-0.0316226
-0.0697415
-0.0951541
-0.10786
-0.120567
-0.129038
-0.137508
-0.145979
-0.15445
-0.162921
-0.171392
-0.175627
-0.175627
-0.175627
-0.175627
-0.175627
-0.171392
-0.167157
-0.158686
-0.150215
-0.145979
-0.137508
-0.129038
-0.0739769
0.129324
0.446982
0.883232
1.39572
1.89974
2.24281
2.27669
2.10727
1.58208
0.942528
0.366509
-0.0316226
-0.209511
-0.260336
-0.289984
-0.306926
-0.315397
-0.323868
-0.332339
-0.336574
-0.34928
-0.361987
-0.374693
-0.374693
-0.366222
-0.34928
-0.336574
-0.319632
-0.306926
-0.302691
-0.302691
-0.306926
-0.311161
-0.319632
-0.328103
-0.332339
-0.311161
-0.277278
-0.260336
-0.256101
-0.24763
-0.243394
-0.234924
-0.230688
-0.222217
-0.213746
-0.205276
-0.196805
-0.188334
-0.184098
-0.179863
-0.175627
-0.171392
-0.167157
-0.162921
-0.15445
-0.145979
-0.137508
-0.120567
-0.103625
-0.0824478
-0.0612706
-0.0443289
-0.0316226
-0.0146808
0.00226094
0.0234381
0.0446153
0.0657925
0.0954406
0.125089
0.154737
0.184385
0.214033
0.23521
0.252152
0.273329
0.311448
0.396157
0.455453
0.489336
0.510513
0.52322
0.531691
0.527455
0.527455
0.52322
0.518984
0.518984
0.510513
0.506278
0.497807
0.480865
0.463924
0.442746
0.417334
0.38345
0.298742
0.201326
0.116618
0.0912051
0.0700279
0.0488507
0.0234381
-0.0189162
-0.0612706
-0.0782124
-0.0866833
-0.0951541
-0.112096
-0.129038
-0.145979
-0.158686
-0.171392
-0.184098
-0.196805
-0.20104
-0.205276
-0.20104
-0.20104
-0.20104
-0.209511
-0.209511
-0.192569
-0.179863
-0.171392
-0.158686
-0.15445
-0.150215
-0.145979
-0.145979
-0.141744
-0.133273
-0.124802
-0.124802
-0.124802
-0.129038
-0.133273
-0.137508
-0.141744
-0.145979
-0.15445
-0.145979
-0.137508
-0.124802
-0.116331
-0.103625
-0.0951541
-0.0993896
-0.10786
-0.124802
-0.141744
-0.15445
-0.167157
-0.179863
-0.192569
-0.20104
-0.205276
-0.209511
-0.213746
-0.213746
-0.217982
-0.222217
-0.226453
-0.230688
-0.226453
-0.217982
-0.209511
-0.205276
-0.20104
-0.20104
-0.196805
-0.192569
-0.184098
-0.184098
-0.184098
-0.184098
-0.188334
-0.192569
-0.192569
-0.196805
-0.20104
-0.209511
-0.213746
-0.217982
-0.222217
-0.222217
-0.222217
-0.222217
-0.222217
-0.222217
-0.222217
-0.222217
-0.217982
-0.217982
-0.217982
-0.217982
-0.213746
-0.213746
-0.209511
-0.209511
-0.213746
-0.213746
-0.213746
-0.209511
-0.209511
-0.209511
-0.213746
-0.217982
-0.222217
-0.226453
-0.234924
-0.251865
-0.222217
-0.192569
-0.179863
-0.167157
-0.150215
-0.137508
-0.129038
-0.120567
-0.112096
-0.10786
-0.0951541
-0.0909187
-0.0824478
-0.0782124
-0.0739769
-0.0697415
-0.0612706
-0.0527998
-0.0485643
-0.0443289
-0.0400934
-0.0316226
-0.0273871
-0.0189162
-0.0146808
-0.0189162
-0.0316226
-0.0485643
-0.0739769
-0.103625
-0.158686
-0.192569
-0.209511
-0.226453
-0.239159
-0.24763
-0.251865
-0.251865
-0.251865
-0.24763
-0.243394
-0.234924
-0.226453
-0.217982
-0.217982
-0.234924
-0.256101
-0.277278
-0.302691
-0.302691
-0.273043
-0.196805
-0.0019745
0.298742
0.709579
1.22207
1.79809
2.33175
2.624
2.624
2.35293
1.73879
1.0103
0.341096
-0.116331
-0.306926
-0.378928
-0.404341
-0.404341
-0.404341
-0.404341
-0.408576
-0.408576
-0.408576
-0.408576
-0.408576
-0.408576
-0.408576
-0.408576
-0.408576
-0.408576
-0.408576
-0.404341
-0.404341
-0.400106
-0.39587
-0.39587
-0.391635
-0.383164
-0.378928
-0.374693
-0.366222
-0.357751
-0.328103
-0.29422
-0.251865
-0.192569
-0.15445
-0.137508
-0.120567
-0.103625
-0.0824478
-0.0655061
-0.0485643
-0.0316226
-0.0104454
0.0107318
0.0234381
0.031909
0.0403799
0.0488507
0.0530862
0.0615571
0.0700279
0.0784988
0.0869697
0.099676
0.116618
0.146266
0.205562
0.247916
0.273329
0.298742
0.315683
0.336861
0.358038
0.387686
0.417334
0.455453
0.497807
0.531691
0.565574
0.590987
0.620635
0.654518
0.679931
0.696873
0.709579
0.722285
0.730756
0.730756
0.726521
0.71805
0.705344
0.688402
0.658754
0.586751
0.518984
0.468159
0.43004
0.396157
0.362273
0.315683
0.252152
0.180149
0.125089
0.0869697
0.0488507
0.00649637
-0.0273871
-0.0485643
-0.0570352
-0.0570352
-0.0612706
-0.0612706
-0.0570352
-0.0570352
-0.0570352
-0.0570352
-0.0570352
-0.0612706
-0.0655061
-0.0697415
-0.0739769
-0.0782124
-0.0824478
-0.0866833
-0.0909187
-0.0951541
-0.0993896
-0.103625
-0.112096
-0.129038
-0.145979
-0.15445
-0.150215
-0.141744
-0.133273
-0.129038
-0.120567
-0.112096
-0.103625
-0.0993896
-0.103625
-0.10786
-0.116331
-0.120567
-0.120567
-0.120567
-0.124802
-0.129038
-0.133273
-0.137508
-0.141744
-0.145979
-0.145979
-0.150215
-0.15445
-0.15445
-0.15445
-0.150215
-0.150215
-0.150215
-0.15445
-0.15445
-0.15445
-0.15445
-0.15445
-0.15445
-0.15445
-0.15445
-0.150215
-0.145979
-0.141744
-0.141744
-0.137508
-0.133273
-0.133273
-0.129038
-0.129038
-0.129038
-0.129038
-0.124802
-0.116331
-0.10786
-0.112096
-0.129038
-0.150215
-0.162921
-0.171392
-0.179863
-0.188334
-0.196805
-0.205276
-0.209511
-0.213746
-0.217982
-0.217982
-0.213746
-0.205276
-0.20104
-0.192569
-0.179863
-0.171392
-0.158686
-0.145979
-0.137508
-0.129038
-0.124802
-0.120567
-0.116331
-0.112096
-0.10786
-0.103625
-0.103625
-0.0993896
-0.0951541
-0.0909187
-0.0866833
-0.0824478
-0.0782124
-0.0739769
-0.0739769
-0.0697415
-0.0655061
-0.0612706
-0.0527998
-0.0443289
-0.0273871
0.0107318
0.0276736
0.0403799
0.0488507
0.0530862
0.0615571
0.0657925
0.0657925
0.0700279
0.0742634
0.0742634
0.0742634
0.0700279
0.0615571
0.0488507
0.0361444
0.0234381
0.0107318
-0.0019745
-0.0273871
-0.0485643
-0.0739769
-0.0993896
-0.120567
-0.141744
-0.158686
-0.175627
-0.192569
-0.209511
-0.217982
-0.226453
-0.230688
-0.239159
-0.251865
-0.273043
-0.302691
-0.315397
-0.332339
-0.345045
-0.277278
-0.0782124
0.260623
0.743463
1.33642
1.97597
2.51811
2.72988
2.69176
2.28093
1.5609
0.747698
0.0615571
-0.345045
-0.425518
-0.450931
-0.425518
-0.408576
-0.404341
-0.400106
-0.400106
-0.39587
-0.391635
-0.383164
-0.378928
-0.374693
-0.366222
-0.357751
-0.34928
-0.345045
-0.336574
-0.332339
-0.328103
-0.319632
-0.315397
-0.306926
-0.298455
-0.29422
-0.289984
-0.285749
-0.281513
-0.273043
-0.268807
-0.264572
-0.264572
-0.260336
-0.256101
-0.251865
-0.243394
-0.239159
-0.234924
-0.226453
-0.20104
-0.171392
-0.137508
-0.116331
-0.103625
-0.0951541
-0.0866833
-0.0782124
-0.0697415
-0.0570352
-0.0527998
-0.0443289
-0.0400934
-0.0316226
-0.0231517
-0.0019745
0.0361444
0.0784988
0.112382
0.137795
0.163208
0.18862
0.218268
0.256387
0.302977
0.345331
0.374979
0.404628
0.434276
0.463924
0.489336
0.510513
0.527455
0.540161
0.548632
0.552868
0.557103
0.565574
0.574045
0.57828
0.582516
0.574045
0.557103
0.531691
0.485101
0.413098
0.349567
0.277564
0.218268
0.167443
0.120853
0.0827342
0.0530862
0.0276736
0.00226094
-0.0189162
-0.0400934
-0.0612706
-0.0782124
-0.0951541
-0.112096
-0.124802
-0.133273
-0.141744
-0.150215
-0.15445
-0.158686
-0.158686
-0.162921
-0.162921
-0.167157
-0.167157
-0.167157
-0.162921
-0.158686
-0.158686
-0.15445
-0.150215
-0.141744
-0.133273
-0.133273
-0.150215
-0.162921
-0.167157
-0.171392
-0.175627
-0.179863
-0.179863
-0.184098
-0.188334
-0.188334
-0.188334
-0.184098
-0.184098
-0.184098
-0.184098
-0.188334
-0.188334
-0.188334
-0.192569
-0.192569
-0.192569
-0.196805
-0.196805
-0.192569
-0.192569
-0.192569
-0.196805
-0.196805
-0.196805
-0.20104
-0.20104
-0.205276
-0.209511
-0.217982
-0.222217
-0.226453
-0.226453
-0.226453
-0.230688
-0.234924
-0.239159
-0.243394
-0.243394
-0.243394
-0.239159
-0.234924
-0.230688
-0.222217
-0.209511
-0.20104
-0.192569
-0.184098
-0.184098
-0.179863
-0.175627
-0.171392
-0.171392
-0.167157
-0.162921
-0.162921
-0.158686
-0.158686
-0.15445
-0.15445
-0.15445
-0.158686
-0.158686
-0.158686
-0.158686
-0.158686
-0.158686
-0.158686
-0.15445
-0.15445
-0.150215
-0.150215
-0.145979
-0.141744
-0.137508
-0.133273
-0.133273
-0.133273
-0.133273
-0.133273
-0.129038
-0.124802
-0.120567
-0.116331
-0.10786
-0.103625
-0.0909187
-0.0739769
-0.0570352
-0.0400934
-0.0273871
-0.0019745
0.0234381
0.0530862
0.0827342
0.0954406
0.108147
0.116618
0.125089
0.133559
0.14203
0.137795
0.125089
0.103911
0.0784988
0.0530862
0.0149672
-0.0146808
-0.035858
-0.0655061
-0.103625
-0.124802
-0.141744
-0.150215
-0.158686
-0.167157
-0.167157
-0.171392
-0.171392
-0.171392
-0.171392
-0.167157
-0.158686
-0.145979
-0.129038
-0.103625
-0.0739769
0.0446153
0.269093
0.595222
1.03571
1.5609
2.0988
2.45034
2.47999
2.27246
1.68797
0.972176
0.307212
-0.141744
-0.277278
-0.277278
-0.184098
-0.141744
-0.124802
-0.116331
-0.167157
-0.192569
-0.209511
-0.217982
-0.230688
-0.239159
-0.24763
-0.251865
-0.256101
-0.260336
-0.260336
-0.260336
-0.251865
-0.243394
-0.230688
-0.217982
-0.205276
-0.192569
-0.184098
-0.175627
-0.171392
-0.167157
-0.162921
-0.158686
-0.150215
-0.141744
-0.133273
-0.124802
-0.116331
-0.10786
-0.0951541
-0.0909187
-0.0824478
-0.0782124
-0.0697415
-0.0612706
-0.0485643
-0.035858
-0.0273871
-0.0146808
-0.00620994
0.00649637
0.0234381
0.0403799
0.0573216
0.0742634
0.0912051
0.116618
0.14203
0.171678
0.201326
0.226739
0.247916
0.264858
0.294506
0.332625
0.387686
0.425805
0.455453
0.47663
0.493572
0.510513
0.52322
0.531691
0.540161
0.552868
0.561339
0.56981
0.574045
0.57828
0.57828
0.574045
0.565574
0.552868
0.540161
0.518984
0.47663
0.408863
0.366509
0.32839
0.290271
0.239445
0.175914
0.116618
0.0488507
0.00226094
-0.0273871
-0.0527998
-0.0909187
-0.103625
-0.116331
-0.124802
-0.133273
-0.137508
-0.145979
-0.150215
-0.15445
-0.158686
-0.167157
-0.171392
-0.175627
-0.179863
-0.179863
-0.179863
-0.175627
-0.175627
-0.179863
-0.179863
-0.184098
-0.188334
-0.196805
-0.205276
-0.205276
-0.205276
-0.196805
-0.184098
-0.171392
-0.15445
-0.124802
-0.112096
-0.10786
-0.0993896
-0.0866833
-0.124802
-0.150215
-0.162921
-0.175627
-0.184098
-0.192569
-0.196805
-0.20104
-0.20104
-0.20104
-0.196805
-0.188334
-0.184098
-0.175627
-0.167157
-0.158686
-0.162921
-0.171392
-0.175627
-0.179863
-0.184098
-0.188334
-0.188334
-0.192569
-0.196805
-0.20104
-0.205276
-0.209511
-0.213746
-0.213746
-0.217982
-0.230688
-0.230688
-0.196805
-0.175627
-0.15445
-0.133273
-0.116331
-0.10786
-0.103625
-0.0866833
-0.0655061
-0.103625
-0.133273
-0.150215
-0.162921
-0.175627
-0.184098
-0.179863
-0.171392
-0.15445
-0.141744
-0.129038
-0.124802
-0.116331
-0.10786
-0.103625
-0.0951541
-0.0909187
-0.0909187
-0.0909187
-0.0866833
-0.0866833
-0.0824478
-0.0782124
-0.0739769
-0.0739769
-0.0697415
-0.0697415
-0.0655061
-0.0655061
-0.0612706
-0.0612706
-0.0612706
-0.0570352
-0.0570352
-0.0527998
-0.0485643
-0.035858
-0.0019745
0.031909
0.0827342
0.133559
0.158972
0.171678
0.184385
0.192856
0.197091
0.197091
0.18862
0.175914
0.163208
0.14203
0.116618
0.0742634
0.0446153
0.0192027
-0.00620994
-0.035858
-0.0570352
-0.0782124
-0.0909187
-0.0993896
-0.0993896
-0.0866833
-0.0697415
-0.0570352
-0.0400934
-0.0316226
-0.0231517
-0.0316226
-0.0400934
-0.0570352
-0.0739769
-0.103625
-0.0993896
-0.0400934
0.108147
0.396157
0.785817
1.25171
1.74303
2.18351
2.37411
2.34446
2.00562
1.37031
0.684166
0.129324
-0.0993896
-0.179863
-0.150215
-0.10786
-0.0782124
-0.112096
-0.133273
-0.145979
-0.15445
-0.162921
-0.167157
-0.175627
-0.175627
-0.175627
-0.179863
-0.184098
-0.184098
-0.179863
-0.175627
-0.162921
-0.15445
-0.150215
-0.141744
-0.137508
-0.129038
-0.120567
-0.116331
-0.112096
-0.10786
-0.103625
-0.0993896
-0.0909187
-0.0866833
-0.0824478
-0.0782124
-0.0697415
-0.0612706
-0.0527998
-0.0443289
-0.0400934
-0.035858
-0.0316226
-0.0273871
-0.0189162
-0.0104454
-0.0019745
0.0107318
0.0276736
0.0403799
0.0530862
0.0615571
0.0700279
0.0784988
0.0912051
0.103911
0.125089
0.150501
0.18862
0.239445
0.311448
0.387686
0.455453
0.493572
0.514749
0.531691
0.552868
0.56981
0.582516
0.595222
0.607929
0.62487
0.633341
0.637577
0.641812
0.641812
0.646047
0.646047
0.650283
0.654518
0.654518
0.650283
0.633341
0.612164
0.586751
0.531691
0.446982
0.387686
0.336861
0.290271
0.239445
0.192856
0.133559
0.0954406
0.0742634
0.0573216
0.0403799
0.0276736
0.0107318
-0.00620994
-0.0231517
-0.0316226
-0.0443289
-0.0570352
-0.0697415
-0.0782124
-0.0909187
-0.0951541
-0.0993896
-0.0993896
-0.0951541
-0.0951541
-0.0951541
-0.0951541
-0.0951541
-0.0909187
-0.0866833
-0.0866833
-0.0824478
-0.0824478
-0.0866833
-0.0866833
-0.0909187
-0.0951541
-0.0993896
-0.103625
-0.10786
-0.112096
-0.116331
-0.120567
-0.120567
-0.120567
-0.116331
-0.10786
-0.103625
-0.0993896
-0.0951541
-0.0909187
-0.0866833
-0.0782124
-0.0739769
-0.0739769
-0.0782124
-0.0866833
-0.103625
-0.116331
-0.124802
-0.133273
-0.145979
-0.158686
-0.167157
-0.171392
-0.175627
-0.179863
-0.179863
-0.179863
-0.179863
-0.184098
-0.179863
-0.179863
-0.179863
-0.179863
-0.184098
-0.184098
-0.179863
-0.175627
-0.175627
-0.171392
-0.171392
-0.171392
-0.171392
-0.171392
-0.171392
-0.171392
-0.175627
-0.179863
-0.184098
-0.188334
-0.192569
-0.196805
-0.20104
-0.205276
-0.209511
-0.209511
-0.209511
-0.209511
-0.205276
-0.205276
-0.209511
-0.209511
-0.209511
-0.213746
-0.213746
-0.217982
-0.222217
-0.226453
-0.226453
-0.230688
-0.230688
-0.226453
-0.217982
-0.213746
-0.205276
-0.192569
-0.184098
-0.175627
-0.162921
-0.15445
-0.145979
-0.137508
-0.133273
-0.124802
-0.112096
-0.103625
-0.0951541
-0.0866833
-0.0824478
-0.0782124
-0.0782124
-0.0824478
-0.0866833
-0.0951541
-0.103625
-0.116331
-0.129038
-0.150215
-0.179863
-0.217982
-0.264572
-0.302691
-0.332339
-0.361987
-0.378928
-0.391635
-0.400106
-0.408576
-0.417047
-0.425518
-0.438225
-0.0316226
-0.0316226
-0.0316226
-0.0316226
-0.0316226
-0.0316226
-0.0316226
-0.0316226
-0.0316226
-0.0316226
-0.0316226
-0.0316226
-0.0316226
-0.0316226
-0.0316226
-0.0316226
-0.0316226
-0.0316226
-0.0316226
-0.0316226
-0.0316226
-0.0316226
-0.0316226
-0.0316226
-0.0316226
-0.0316226
-0.0316226
-0.0316226
-0.0316226
-0.0316226
-0.0316226
-0.0316226
-0.0316226
-0.0316226
-0.0316226
-0.0316226
-0.0316226
-0.0316226
-0.0316226
-0.0316226
-0.0316226
-0.0316226
-0.0316226
-0.0316226
-0.0316226
-0.0316226
-0.0316226
-0.0316226
-0.0316226
-0.0316226
-0.0316226
-0.0316226
-0.0316226
-0.0316226
-0.0316226
-0.0316226
-0.0316226
-0.0316226
-0.0316226
-0.0316226
-0.0316226
-0.0316226
-0.0316226
-0.0316226
-0.0316226
-0.0316226
-0.0316226
-0.0316226
-0.0316226
-0.0316226
-0.0316226
-0.0316226
-0.0316226
-0.0316226
-0.0316226
-0.0316226
-0.0316226
-0.0316226
-0.0316226
-0.0316226
-0.0316226
-0.0316226
-0.0316226
-0.0316226
-0.0316226
-0.0316226
-0.0316226
-0.0316226
-0.0316226
-0.0316226
-0.0316226
-0.0316226
-0.0316226
-0.0316226
-0.0316226
-0.0316226
-0.0316226
-0.0316226
-0.0316226
-0.0316226
-0.0316226
-0.0316226
-0.0316226
-0.0316226
-0.0316226
-0.0316226
-0.0316226
-0.0316226
-0.0316226
-0.0316226
-0.0316226
-0.0316226
-0.0316226
-0.0316226
-0.0316226
-0.0316226
-0.0316226
-0.0316226
-0.0316226
-0.0316226
-0.0316226
-0.0316226
-0.0316226
-0.0316226
-0.0316226
-0.0316226
-0.0316226
-0.0316226
-0.0316226
-0.0316226
-0.0316226
-0.0316226
-0.0316226
-0.0316226
-0.0316226
-0.0316226
-0.0316226
-0.0316226
-0.0316226
-0.0316226
-0.0316226
-0.0316226
-0.0316226
-0.0316226
-0.0316226
-0.0316226
-0.0316226
-0.0316226
-0.0316226
-0.0316226
-0.0316226
-0.0316226
-0.0316226
-0.0316226
-0.0316226
-0.0316226
-0.0316226
-0.0316226
-0.0316226
-0.0316226
-0.0316226
-0.0316226
-0.0316226
-0.0316226
-0.0316226
-0.0316226
-0.0316226
-0.0316226
-0.0316226
-0.0316226
-0.0316226
-0.0316226
-0.0316226
-0.0316226
-0.0316226
-0.0316226
-0.0316226
-0.0316226
-0.0316226
-0.0316226
-0.0316226
-0.0316226
-0.0316226
-0.0316226
-0.0316226
-0.0316226
-0.0316226
-0.0316226
-0.0316226
-0.0316226
-0.0316226
-0.0316226
-0.0316226
-0.0316226
-0.0316226
-0.0316226
-0.0316226
-0.0316226
-0.0316226
-0.0316226
-0.0316226
-0.0316226
-0.0316226
-0.0316226
-0.0316226
-0.0316226
-0.0316226
-0.0316226
-0.0316226
-0.0316226
-0.0316226
-0.0316226
-0.0316226
-0.0316226
-0.0316226
-0.0316226
-0.0316226
-0.0316226
-0.0316226
-0.0316226
-0.0316226
-0.0316226
-0.0316226
-0.0316226
-0.0316226
-0.0316226
-0.0316226
-0.0316226
-0.0316226
-0.0316226
-0.0316226
-0.0316226
-0.0316226
-0.0316226
-0.0316226
-0.0316226
-0.0316226
-0.0316226
-0.0316226
-0.0316226
-0.0316226
-0.0316226
-0.0316226
-0.0316226
-0.0316226
-0.0316226
-0.0316226
-0.0316226
-0.0316226
-0.0316226
-0.0316226
-0.0316226
-0.0316226
-0.0316226
-0.0316226
-0.0316226
-0.0316226
-0.0316226
-0.0316226
-0.0316226
-0.0316226
-0.0316226
-0.0316226
-0.0316226
-0.0316226
-0.0316226
-0.0316226
-0.0316226
-0.0316226
-0.0316226
-0.0316226
-0.0316226
-0.0316226
-0.0316226
-0.0316226
-0.0316226
-0.0316226
-0.0316226
-0.0316226
-0.0316226
-0.0316226
-0.0316226
-0.0316226
-0.0316226
-0.0316226
-0.0316226
-0.0316226
-0.0316226
-0.0316226
-0.0316226
-0.0316226
-0.0316226
-0.0316226
-0.0316226
-0.0316226
-0.0316226
-0.0316226
-0.0316226
-0.0316226
-0.0316226
-0.0316226
-0.0316226
-0.0316226
-0.0316226
-0.0316226
-0.0316226
-0.0316226
-0.0316226
-0.0316226
-0.0316226
-0.0316226
-0.0316226
-0.0316226
-0.0316226
-0.0316226
-0.0316226
-0.0316226
-0.0316226
-0.0316226
-0.0316226
-0.0316226
-0.0316226
-0.0316226
-0.0316226
-0.0316226
-0.0316226
-0.0316226
-0.0316226
-0.0316226
-0.0316226
-0.0316226
-0.0316226
-0.0316226
-0.0316226
-0.0316226
-0.0316226
-0.0316226
-0.0316226
-0.0316226
-0.0316226
-0.0316226
-0.0316226
-0.0316226
-0.0316226
-0.0316226
-0.0316226
-0.0316226
-0.0316226
-0.0316226
-0.0316226
-0.0316226
-0.0316226
-0.0316226
-0.0316226
-0.0316226
-0.0316226
-0.0316226
-0.0316226
-0.0316226
-0.0316226
-0.0316226
-0.0316226
-0.0316226
-0.0316226
-0.0316226
-0.0316226
-0.0316226
-0.0316226
-0.0316226
-0.0316226
-0.0316226
-0.0316226
-0.0316226
-0.0316226
-0.0316226
-0.0316226
-0.0316226
-0.0316226
-0.0316226
-0.0316226
-0.0316226
-0.0316226
-0.0316226
-0.0316226
-0.0316226
-0.0316226
-0.0316226
-0.0316226
-0.0316226
-0.0316226
-0.0316226
-0.0316226
-0.0316226
-0.0316226
-0.0316226
-0.0316226
-0.0316226
-0.0316226
-0.0316226
-0.0316226
-0.0316226
-0.0316226
-0.0316226
-0.0316226
-0.0316226
-0.0316226
-0.0316226
-0.0316226
-0.0316226
-0.0316226
-0.0316226
-0.0316226
-0.0316226
-0.0316226
-0.0316226
-0.0316226
-0.0316226
-0.0316226
-0.0316226
-0.0316226
-0.0316226
-0.0316226
-0.0316226
-0.0316226
-0.0316226
-0.0316226
-0.0316226
-0.0316226
-0.0316226
-0.0316226
-0.0316226
-0.0316226
-0.0316226
-0.0316226
-0.0316226
-0.0316226
-0.0316226
-0.0316226
-0.0316226
-0.0316226
-0.0316226
-0.0316226
-0.0316226
-0.0316226
-0.0316226
-0.0316226
-0.0316226
-0.0316226
-0.0316226
-0.0316226
-0.0316226
-0.0316226
-0.0316226
-0.0316226
-0.0316226
-0.0316226
-0.0316226
-0.0316226
-0.0316226
-0.0316226
-0.0316226
-0.0316226
-0.0316226
-0.0316226
-0.0316226
-0.0316226
-0.0316226
-0.0316226
-0.0316226
-0.0316226
-0.0316226
-0.0316226
-0.0316226
-0.0316226
-0.0316226
-0.0316226
-0.0316226
-0.0316226
-0.0316226
-0.0316226
-0.0316226
-0.0316226
-0.0316226
-0.0316226
-0.0316226
-0.0316226
-0.0316226
-0.0316226
-0.0316226
-0.0316226
-0.0316226
-0.0316226
-0.0316226
-0.0316226
-0.0316226
-0.0316226
-0.0316226
-0.0316226
-0.0316226
-0.0316226
-0.0316226
-0.0316226
-0.0316226
-0.0316226
-0.0316226
-0.0316226
-0.0316226
-0.0316226
-0.0316226
-0.0316226
-0.0316226
-0.0316226
-0.0316226
-0.0316226
-0.0316226
-0.0316226
-0.0316226
-0.0316226
-0.0316226
-0.0316226
-0.0316226
-0.0316226
-0.0316226
-0.0316226
-0.0316226
-0.0316226
-0.0316226
-0.0316226
-0.0316226
-0.0316226
-0.0316226
-0.0316226
-0.0316226
-0.0316226
-0.0316226
-0.0316226
-0.0316226
-0.0316226
-0.0316226
-0.0316226
-0.0316226
-0.0316226
-0.0316226
-0.0316226
-0.0316226
-0.0316226
-0.0316226
-0.0316226
-0.0316226
-0.0316226
-0.0316226
-0.0316226
-0.0316226
-0.0316226
-0.0316226
-0.0316226
-0.0316226
-0.0316226
-0.0316226
-0.0316226
-0.0316226
-0.0316226
-0.0316226
-0.0316226
-0.0316226
-0.0316226
-0.0316226
-0.0316226
-0.0316226
-0.0316226
-0.0316226
-0.0316226
-0.0316226
-0.0316226
-0.0316226
-0.0316226
-0.0316226
-0.0316226
-0.0316226
-0.0316226
-0.0316226
-0.0316226
-0.0316226
-0.0316226
-0.0316226
-0.0316226
-0.0316226
-0.0316226
-0.0316226
-0.0316226
-0.0316226
-0.0316226
-0.0316226
-0.0316226
-0.0316226
-0.0316226
-0.0316226
-0.0316226
-0.0316226
-0.0316226
-0.0316226
-0.0316226
-0.0316226
-0.0316226
-0.0316226
-0.0316226
-0.0316226
-0.0316226
-0.0316226
-0.0316226
-0.0316226
-0.0316226
-0.0316226
-0.0316226
-0.0316226
-0.0316226
-0.0316226
-0.0316226
-0.0316226
-0.0316226
-0.0316226
-0.0316226
-0.0316226
-0.0316226
-0.0316226
-0.0316226
-0.0316226
-0.0316226
-0.0316226
-0.0316226
-0.0316226
-0.0316226
-0.0316226
-0.0316226
-0.0316226
-0.0316226
-0.0316226
-0.0316226
-0.0316226
-0.0316226
-0.0316226
-0.0316226
-0.0316226
-0.0316226
-0.0316226
-0.0316226
-0.0316226
-0.0316226
-0.0316226
-0.0316226
-0.0316226
-0.0316226
-0.0316226
-0.0316226
-0.0316226
-0.0316226
-0.0316226
-0.0316226
-0.0316226
-0.0316226
-0.0316226
-0.0316226
-0.0316226
-0.0316226
-0.0316226
-0.0316226
-0.0316226
-0.0316226
-0.0316226
-0.0316226
-0.0316226
-0.0316226
-0.0316226
-0.0316226
-0.0316226
-0.0316226
-0.0316226
-0.0316226
-0.0316226
-0.0316226
-0.0316226
-0.0316226
-0.0316226
-0.0316226
-0.0316226
-0.0316226
-0.0316226
-0.0316226
-0.0316226
-0.0316226
-0.0316226
-0.0316226
-0.0316226
-0.0316226
-0.0316226
-0.0316226
-0.0316226
-0.0316226
-0.0316226
-0.0316226
-0.0316226
-0.0316226
-0.0316226
-0.0316226
-0.0316226
-0.0316226
-0.0316226
-0.0316226
-0.0316226
-0.0316226
-0.0316226
-0.0316226
-0.0316226
-0.0316226
-0.0316226
-0.0316226
-0.0316226
-0.0316226
-0.0316226
-0.0316226
-0.0316226
-0.0316226
-0.0316226
-0.0316226
-0.0316226
-0.0316226
-0.0316226
-0.0316226
-0.0316226
-0.0316226
-0.0316226
-0.0316226
-0.0316226
-0.0316226
-0.0316226
-0.0316226
-0.0316226
-0.0316226
-0.0316226
-0.0316226
-0.0316226
-0.0316226
-0.0316226
-0.0316226
-0.0316226
-0.0316226
-0.0316226
-0.0316226
-0.0316226
-0.0316226
-0.0316226
-0.0316226
-0.0316226
-0.0316226
-0.0316226
-0.0316226
-0.0316226
-0.0316226
-0.0316226
-0.0316226
-0.0316226
-0.0316226
-0.0316226
-0.0316226
-0.0316226
-0.0316226
-0.0316226
-0.0316226
-0.0316226
-0.0316226
-0.0316226
-0.0316226
-0.0316226
-0.0316226
-0.0316226
-0.0316226
-0.0316226
-0.0316226
-0.0316226
-0.0316226
-0.0316226
-0.0316226
-0.0316226
-0.0316226
-0.0316226
-0.0316226
-0.0316226
-0.0316226
-0.0316226
-0.0316226
-0.0316226
-0.0316226
-0.0316226
-0.0316226
-0.0316226
-0.0316226
-0.0316226
-0.0316226
-0.0316226
-0.0316226
-0.0316226
-0.0316226
-0.0316226
-0.0316226
-0.0316226
-0.0316226
-0.0316226
-0.0316226
-0.0316226
-0.0316226
-0.0316226
-0.0316226
-0.0316226
-0.0316226
-0.0316226
-0.0316226
-0.0316226
-0.0316226
-0.0316226
-0.0316226
-0.0316226
-0.0316226
-0.0316226
-0.0316226
-0.0316226
-0.0316226
-0.0316226
-0.0316226
-0.0316226
-0.0316226
-0.0316226
-0.0316226
-0.0316226
-0.0316226
-0.0316226
-0.0316226
-0.0316226
-0.0316226
-0.0316226
-0.0316226
-0.0316226
-0.0316226
-0.0316226
-0.0316226
-0.0316226
-0.0316226
-0.0316226
-0.0316226
-0.0316226
-0.0316226
-0.0316226
-0.0316226
-0.0316226
-0.0316226
-0.0316226
-0.0316226
-0.0316226
-0.0316226
-0.0316226
-0.0316226
-0.0316226
-0.0316226
-0.0316226
-0.0316226
-0.0316226
-0.0316226
-0.0316226
-0.0316226
-0.0316226
-0.0316226
-0.0316226
-0.0316226
-0.0316226
-0.0316226
-0.0316226
-0.0316226
-0.0316226
-0.0316226
-0.0316226
-0.0316226
-0.0316226
-0.0316226
-0.0316226
-0.0316226
-0.0316226
-0.0316226
-0.0316226
-0.0316226
-0.0316226
-0.0316226
-0.0316226
-0.0316226
-0.0316226
-0.0316226
-0.0316226
-0.0316226
-0.0316226
-0.0316226
-0.0316226
-0.0316226
-0.0316226
-0.0316226
-0.0316226
-0.0316226
-0.0316226
-0.0316226
-0.0316226
-0.0316226
-0.0316226
-0.0316226
-0.0316226
-0.0316226
-0.0316226
-0.0316226
-0.0316226
-0.0316226
-0.0316226
-0.0316226
-0.0316226
-0.0316226
-0.0316226
-0.0316226
-0.0316226
-0.0316226
-0.0316226
-0.0316226
-0.0316226
-0.0316226
-0.0316226
-0.0316226
-0.0316226
-0.0316226
-0.0316226
-0.0316226
-0.0316226
-0.0316226
-0.0316226
-0.0316226
-0.0316226
-0.0316226
-0.0316226
-0.0316226
-0.0316226
-0.0316226
-0.0316226
-0.0316226
-0.0316226
-0.0316226
-0.0316226
-0.0316226
-0.0316226
-0.0316226
-0.0316226
-0.0316226
-0.0316226
-0.0316226
-0.0316226
-0.0316226
-0.0316226
-0.0316226
-0.0316226
-0.0316226
-0.0316226
-0.0316226
-0.0316226
-0.0316226
-0.0316226
-0.0316226
-0.0316226
-0.0316226
-0.0316226
-0.0316226
-0.0316226
-0.0316226
-0.0316226
-0.0316226
-0.0316226
-0.0316226
-0.0316226
-0.0316226
-0.0316226
-0.0316226
-0.0316226
-0.0316226
-0.0316226
-0.0316226
-0.0316226
-0.0316226
-0.0316226
-0.0316226
-0.0316226
-0.0316226
-0.0316226
-0.0316226
-0.0316226
-0.0316226
-0.0316226
-0.0316226
-0.0316226
-0.0316226
-0.0316226
-0.0316226
-0.0316226
-0.0316226
-0.0316226
-0.0316226
-0.0316226
-0.0316226
-0.0316226
-0.0316226
-0.0316226
-0.0316226
-0.0316226
-0.0316226
-0.0316226
-0.0316226
-0.0316226
-0.0316226
-0.0316226
-0.0316226
-0.0316226
-0.0316226
-0.0316226
-0.0316226
-0.0316226
-0.0316226
-0.0316226
-0.0316226
-0.0316226
-0.0316226
-0.0316226
-0.0316226
-0.0316226
-0.0316226
-0.0316226
-0.0316226
-0.0316226
-0.0316226
-0.0316226
-0.0316226
-0.0316226
-0.0316226
-0.0316226
-0.0316226
-0.0316226
-0.0316226
-0.0316226
-0.0316226
-0.0316226
-0.0316226
-0.0316226
-0.0316226
-0.0316226
-0.0316226
-0.0316226
-0.0316226
-0.0316226
-0.0316226
-0.0316226
-0.0316226
-0.0316226
-0.0316226
-0.0316226
-0.0316226
-0.0316226
-0.0316226
-0.0316226
-0.0316226
-0.0316226
-0.0316226
-0.0316226
-0.0316226
-0.0316226
-0.0316226
-0.0316226
-0.0316226
-0.0316226
-0.0316226
-0.0316226
-0.0316226
-0.0316226
-0.0316226
-0.0316226
-0.0316226
-0.0316226
-0.0316226
-0.0316226
-0.0316226
-0.0316226
-0.0316226
-0.0316226
-0.0316226
-0.0316226
-0.0316226
-0.0316226
-0.0316226
-0.0316226
-0.0316226
-0.0316226
-0.0316226
-0.0316226
-0.0316226
-0.0316226
-0.0316226
-0.0316226
-0.0316226
-0.0316226
-0.0316226
-0.0316226
-0.0316226
-0.0316226
-0.0316226
-0.0316226
-0.0316226
-0.0316226
-0.0316226
-0.0316226
-0.0316226
-0.0316226
-0.0316226
-0.0316226
-0.0316226
-0.0316226
-0.0316226
-0.0316226
-0.0316226
-0.0316226
-0.0316226
-0.0316226
-0.0316226
-0.0316226
-0.0316226
-0.0316226
-0.0316226
-0.0316226
-0.0316226
-0.0316226
-0.0316226
-0.0316226
-0.0316226
-0.0316226
-0.0316226
-0.0316226
-0.0316226
-0.0316226
-0.0316226
-0.0316226
-0.0316226
-0.0316226
-0.0316226
-0.0316226
-0.0316226
-0.0316226
-0.0316226
-0.0316226
-0.0316226
-0.0316226
-0.0316226
-0.0316226
-0.0316226
-0.0316226
-0.0316226
-0.0316226
-0.0316226
-0.0316226
-0.0316226
-0.0316226
-0.0316226
-0.0316226
-0.0316226
-0.0316226
-0.0316226
-0.0316226
-0.0316226
-0.0316226
-0.0316226
-0.0316226
-0.0316226
-0.0316226
-0.0316226
-0.0316226
-0.0316226
-0.0316226
-0.0316226
-0.0316226
-0.0316226
-0.0316226
-0.0316226
-0.0316226
-0.0316226
-0.0316226
-0.0316226
-0.0316226
-0.0316226
-0.0316226
-0.0316226
-0.0316226
-0.0316226
-0.0316226
-0.0316226
-0.0316226
-0.0316226
-0.0316226
-0.0316226
-0.0316226
-0.0316226
-0.0316226
-0.0316226
-0.0316226
-0.0316226
-0.0316226
-0.0316226
-0.0316226
-0.0316226
-0.0316226
-0.0316226
-0.0316226
-0.0316226
-0.0316226
-0.0316226
-0.0316226
-0.0316226
-0.0316226
-0.0316226
-0.0316226
-0.0316226
-0.0316226
-0.0316226
-0.0316226
-0.0316226
-0.0316226
-0.0316226
-0.0316226
-0.0316226
-0.0316226
-0.0316226
-0.0316226
-0.0316226
-0.0316226
-0.0316226
-0.0316226
-0.0316226
-0.0316226
-0.0316226
-0.0316226
-0.0316226
-0.0316226
-0.0316226
-0.0316226
-0.0316226
-0.0316226
-0.0316226
-0.0316226
-0.0316226
-0.0316226
-0.0316226
-0.0316226
-0.0316226
-0.0316226
-0.0316226
-0.0316226
-0.0316226
-0.0316226
-0.0316226
-0.0316226
-0.0316226
-0.0316226
-0.0316226
-0.0316226
-0.0316226
-0.0316226
-0.0316226
-0.0316226
-0.0316226
-0.0316226
-0.0316226
-0.0316226
-0.0316226
-0.0316226
-0.0316226
-0.0316226
-0.0316226
-0.0316226
-0.0316226
-0.0316226
-0.0316226
-0.0316226
-0.0316226
-0.0316226
-0.0316226
-0.0316226
-0.0316226
-0.0316226
-0.0316226
-0.0316226
-0.0316226
-0.0316226
-0.0316226
-0.0316226
-0.0316226
-0.0316226
-0.0316226
-0.0316226
-0.0316226
-0.0316226
-0.0316226
-0.0316226
-0.0316226
-0.0316226
-0.0316226
-0.0316226
-0.0316226
-0.0316226
-0.0316226
-0.0316226
-0.0316226
-0.0316226
-0.0316226
-0.0316226
-0.0316226
-0.0316226
-0.0316226
-0.0316226
-0.0316226
-0.0316226
-0.0316226
-0.0316226
-0.0316226
-0.0316226
-0.0316226
-0.0316226
-0.0316226
-0.0316226
-0.0316226
-0.0316226
-0.0316226
-0.0316226
-0.0316226
-0.0316226
-0.0316226
-0.0316226
-0.0316226
-0.0316226
-0.0316226
-0.0316226
-0.0316226
-0.0316226
-0.0316226
-0.0316226
-0.0316226
-0.0316226
-0.0316226
-0.0316226
-0.0316226
-0.0316226
-0.0316226
-0.0316226
-0.0316226
-0.0316226
-0.0316226
-0.0316226
-0.0316226
-0.0316226
-0.0316226
-0.0316226
-0.0316226
-0.0316226
-0.0316226
-0.0316226
-0.0316226
-0.0316226
-0.0316226
-0.0316226
-0.0316226
-0.0316226
-0.0316226
-0.0316226
-0.0316226
-0.0316226
-0.0316226
-0.0316226
-0.0316226
-0.0316226
-0.0316226
-0.0316226
-0.0316226
-0.0316226
-0.0316226
-0.0316226
-0.0316226
-0.0316226
-0.0316226
-0.0316226
-0.0316226
-0.0316226
-0.0316226
-0.0316226
-0.0316226
-0.0316226
-0.0316226
-0.0316226
-0.0316226
-0.0316226
-0.0316226
-0.0316226
-0.0316226
-0.0316226
-0.0316226
-0.0316226
-0.0316226
-0.0316226
-0.0316226
-0.0316226
-0.0316226
-0.0316226
-0.0316226
-0.0316226
-0.0316226
-0.0316226
-0.0316226
-0.0316226
-0.0316226
-0.0316226
-0.0316226
-0.0316226
-0.0316226
-0.0316226
-0.0316226
-0.0316226
-0.0316226
-0.0316226
-0.0316226
-0.0316226
-0.0316226
-0.0316226
-0.0316226
-0.0316226
-0.0316226
-0.0316226
-0.0316226
-0.0316226
-0.0316226
-0.0316226
-0.0316226
-0.0316226
-0.0316226
-0.0316226
-0.0316226
-0.0316226
-0.0316226
-0.0316226
-0.0316226
-0.0316226
-0.0316226
-0.0316226
-0.0316226
-0.0316226
-0.0316226
-0.0316226
-0.0316226
-0.0316226
-0.0316226
-0.0316226
-0.0316226
-0.0316226
-0.0316226
-0.0316226
-0.0316226
-0.0316226
-0.0316226
-0.0316226
-0.0316226
-0.0316226
-0.0316226
-0.0316226
-0.0316226
-0.0316226
-0.0316226
-0.0316226
-0.0316226
-0.0316226
-0.0316226
-0.0316226
-0.0316226
-0.0316226
-0.0316226
-0.0316226
-0.0316226
-0.0316226
-0.0316226
-0.0316226
-0.0316226
-0.0316226
-0.0316226
-0.0316226
-0.0316226
-0.0316226
-0.0316226
-0.0316226
-0.0316226
-0.0316226
-0.0316226
-0.0316226
-0.0316226
-0.0316226
-0.0316226
-0.0316226
-0.0316226
-0.0316226
-0.0316226
-0.0316226
-0.0316226
-0.0316226
-0.0316226
-0.0316226
-0.0316226
-0.0316226
-0.0316226
-0.0316226
-0.0316226
-0.0316226
-0.0316226
-0.0316226
-0.0316226
-0.0316226
-0.0316226
-0.0316226
-0.0316226
-0.0316226
-0.0316226
-0.0316226
-0.0316226
-0.0316226
-0.0316226
-0.0316226
-0.0316226
-0.0316226
-0.0316226
-0.0316226
-0.0316226
-0.0316226
-0.0316226
-0.0316226
-0.0316226
-0.0316226
-0.0316226
-0.0316226
-0.0316226
-0.0316226
-0.0316226
-0.0316226
-0.0316226
-0.0316226
-0.0316226
-0.0316226
-0.0316226
-0.0316226
-0.0316226
-0.0316226
-0.0316226
-0.0316226
-0.0316226
-0.0316226
-0.0316226
-0.0316226
-0.0316226
-0.0316226
-0.0316226
-0.0316226
-0.0316226
-0.0316226
-0.0316226
-0.0316226
-0.0316226
-0.0316226
-0.0316226
-0.0316226
-0.0316226
-0.0316226
-0.0316226
-0.0316226
-0.0316226
-0.0316226
-0.0316226
-0.0316226
-0.0316226
-0.0316226
-0.0316226
-0.0316226
-0.0316226
-0.0316226
-0.0316226
-0.0316226
-0.0316226
-0.0316226
-0.0316226
-0.0316226
-0.0316226
-0.0316226
-0.0316226
-0.0316226
-0.0316226
-0.0316226
-0.0316226
-0.0316226
-0.0316226
-0.0316226
-0.0316226
-0.0316226
-0.0316226
-0.0316226
-0.0316226
-0.0316226
-0.0316226
-0.0316226
-0.0316226
-0.0316226
-0.0316226
-0.0316226
-0.0316226
-0.0316226
-0.0316226
-0.0316226
-0.0316226
-0.0316226
-0.0316226
-0.0316226
-0.0316226
-0.0316226
-0.0316226
-0.0316226
-0.0316226
-0.0316226
-0.0316226
-0.0316226
-0.0316226
-0.0316226
-0.0316226
-0.0316226
-0.0316226
-0.0316226
-0.0316226
-0.0316226
-0.0316226
-0.0316226
-0.0316226
-0.0316226
-0.0316226
-0.0316226
-0.0316226
-0.0316226
-0.0316226
-0.0316226
-0.0316226
-0.0316226
-0.0316226
-0.0316226
-0.0316226
-0.0316226
-0.0316226
-0.0316226
-0.0316226
-0.0316226
-0.0316226
-0.0316226
-0.0316226
-0.0316226
-0.0316226
-0.0316226
-0.0316226
-0.0316226
-0.0316226
-0.0316226
-0.0316226
-0.0316226
-0.0316226
-0.0316226
-0.0316226
-0.0316226
-0.0316226
-0.0316226
-0.0316226
-0.0316226
-0.0316226
-0.0316226
-0.0316226
-0.0316226
-0.0316226
-0.0316226
-0.0316226
-0.0316226
-0.0316226
-0.0316226
-0.0316226
-0.0316226
-0.0316226
-0.0316226
-0.0316226
-0.0316226
-0.0316226
-0.0316226
-0.0316226
-0.0316226
-0.0316226
-0.0316226
-0.0316226
-0.0316226
-0.0316226
-0.0316226
-0.0316226
-0.0316226
-0.0316226
-0.0316226
-0.0316226
-0.0316226
-0.0316226
-0.0316226
-0.0316226
-0.0316226
-0.0316226
-0.0316226
-0.0316226
-0.0316226
-0.0316226
-0.0316226
-0.0316226
-0.0316226
-0.0316226
-0.0316226
-0.0316226
-0.0316226
-0.0316226
-0.0316226
-0.0316226
-0.0316226
-0.0316226
-0.0316226
-0.0316226
-0.0316226
-0.0316226
-0.0316226
-0.0316226
-0.0316226
-0.0316226
-0.0316226
-0.0316226
-0.0316226
-0.0316226
-0.0316226
-0.0316226
-0.0316226
-0.0316226
-0.0316226
-0.0316226
-0.0316226
-0.0316226
-0.0316226
-0.0316226
-0.0316226
-0.0316226
-0.0316226
-0.0316226
-0.0316226
-0.0316226
-0.0316226
-0.0316226
-0.0316226
-0.0316226
-0.0316226
-0.0316226
-0.0316226
-0.0316226
-0.0316226
-0.0316226
-0.0316226
-0.0316226
-0.0316226
-0.0316226
-0.0316226
-0.0316226
-0.0316226
-0.0316226
-0.0316226
-0.0316226
-0.0316226
-0.0316226
-0.0316226
-0.0316226
-0.0316226
-0.0316226
-0.0316226
-0.0316226
-0.0316226
-0.0316226
-0.0316226
-0.0316226
-0.0316226
-0.0316226
-0.0316226
-0.0316226
-0.0316226
-0.0316226
-0.0316226
-0.0316226
-0.0316226
-0.0316226
-0.0316226
-0.0316226
-0.0316226
-0.0316226
-0.0316226
-0.0316226
-0.0316226
-0.0316226
-0.0316226
-0.0316226
-0.0316226
-0.0316226
-0.0316226
-0.0316226
-0.0316226
-0.0316226
-0.0316226
-0.0316226
-0.0316226
-0.0316226
-0.0316226
-0.0316226
-0.0316226
-0.0316226
-0.0316226
-0.0316226
-0.0316226
-0.0316226
-0.0316226
-0.0316226
-0.0316226
-0.0316226
-0.0316226
-0.0316226
-0.0316226
-0.0316226
-0.0316226
-0.0316226
-0.0316226
-0.0316226
-0.0316226
-0.0316226
-0.0316226
-0.0316226
-0.0316226
-0.0316226
-0.0316226
-0.0316226
-0.0316226
-0.0316226
-0.0316226
-0.0316226
-0.0316226
-0.0316226
-0.0316226
-0.0316226
-0.0316226
-0.0316226
-0.0316226
-0.0316226
-0.0316226
-0.0316226
-0.0316226
-0.0316226
-0.0316226
-0.0316226
-0.0316226
-0.0316226
-0.0316226
-0.0316226
-0.0316226
-0.0316226
-0.0316226
-0.0316226
-0.0316226
-0.0316226
-0.0316226
-0.0316226
-0.0316226
-0.0316226
-0.0316226
-0.0316226
-0.0316226
-0.0316226
-0.0316226
-0.0316226
-0.0316226
-0.0316226
-0.0316226
-0.0316226
-0.0316226
-0.0316226
-0.0316226
-0.0316226
-0.0316226
-0.0316226
-0.0316226
-0.0316226
-0.0316226
-0.0316226
-0.0316226
-0.0316226
-0.0316226
-0.0316226
-0.0316226
-0.0316226
-0.0316226
-0.0316226
-0.0316226
-0.0316226
-0.0316226
-0.0316226
-0.0316226
-0.0316226
-0.0316226
-0.0316226
-0.0316226
-0.0316226
-0.0316226
-0.0316226
-0.0316226
-0.0316226
-0.0316226
-0.0316226
-0.0316226
-0.0316226
-0.0316226
-0.0316226
-0.0316226
-0.0316226
-0.0316226
-0.0316226
-0.0316226
-0.0316226
-0.0316226
-0.0316226
-0.0316226
-0.0316226
-0.0316226
-0.0316226
-0.0316226
-0.0316226
-0.0316226
-0.0316226
-0.0316226
-0.0316226
-0.0316226
-0.0316226
-0.0316226
-0.0316226
-0.0316226
-0.0316226
-0.0316226
-0.0316226
-0.0316226
-0.0316226
-0.0316226
-0.0316226
-0.0316226
-0.0316226
-0.0316226
-0.0316226
-0.0316226
-0.0316226
-0.0316226
-0.0316226
-0.0316226
-0.0316226
-0.0316226
-0.0316226
-0.0316226
-0.0316226
-0.0316226
-0.0316226
-0.0316226
-0.0316226
-0.0316226
-0.0316226
-0.0316226
-0.0316226
-0.0316226
-0.0316226
-0.0316226
-0.0316226
-0.0316226
-0.0316226
-0.0316226
-0.0316226
-0.0316226
-0.0316226
-0.0316226
-0.0316226
-0.0316226
-0.0316226
-0.0316226
-0.0316226
-0.0316226
-0.0316226
-0.0316226
-0.0316226
-0.0316226
-0.0316226
-0.0316226
-0.0316226
-0.0316226
-0.0316226
-0.0316226
-0.0316226
-0.0316226
-0.0316226
-0.0316226
-0.0316226
-0.0316226
-0.0316226
-0.0316226
-0.0316226
-0.0316226
-0.0316226
-0.0316226
-0.0316226
-0.0316226
-0.0316226
-0.0316226
-0.0316226
-0.0316226
-0.0316226
-0.0316226
-0.0316226
-0.0316226
-0.0316226
-0.0316226
-0.0316226
-0.0316226
-0.0316226
-0.0316226
-0.0316226
-0.0316226
-0.0316226
-0.0316226
-0.0316226
-0.0316226
-0.0316226
-0.0316226
-0.0316226
-0.0316226
-0.0316226
-0.0316226
-0.0316226
-0.0316226
-0.0316226
-0.0316226
-0.0316226
-0.0316226
-0.0316226
-0.0316226
-0.0316226
-0.0316226
-0.0316226
-0.0316226
-0.0316226
-0.0316226
-0.0316226
-0.0316226
-0.0316226
-0.0316226
-0.0316226
-0.0316226
-0.0316226
-0.0316226
-0.0316226
-0.0316226
-0.0316226
-0.0316226
-0.0316226
-0.0316226
-0.0316226
-0.0316226
-0.0316226
-0.0316226
-0.0316226
-0.0316226
-0.0316226
-0.0316226
-0.0316226
-0.0316226
-0.0316226
-0.0316226
-0.0316226
-0.0316226
-0.0316226
-0.0316226
-0.0316226
-0.0316226
-0.0316226
-0.0316226
-0.0316226
-0.0316226
-0.0316226
-0.0316226
-0.0316226
-0.0316226
-0.0316226
-0.0316226
-0.0316226
-0.0316226
-0.0316226
-0.0316226
-0.0316226
-0.0316226
-0.0316226
-0.0316226
-0.0316226
-0.0316226
-0.0316226
-0.0316226
-0.0316226
-0.0316226
-0.0316226
-0.0316226
-0.0316226
-0.0316226
-0.0316226
-0.0316226
-0.0316226
-0.0316226
-0.0316226
-0.0316226
-0.0316226
-0.0316226
-0.0316226
-0.0316226
-0.0316226
-0.0316226
-0.0316226
-0.0316226
-0.0316226
-0.0316226
-0.0316226
-0.0316226
-0.0316226
-0.0316226
-0.0316226
-0.0316226
-0.0316226
-0.0316226
-0.0316226
-0.0316226
-0.0316226
-0.0316226
-0.0316226
-0.0316226
-0.0316226
-0.0316226
-0.0316226
-0.0316226
-0.0316226
-0.0316226
-0.0316226
-0.0316226
-0.0316226
-0.0316226
-0.0316226
-0.0316226
-0.0316226
-0.0316226
-0.0316226
-0.0316226
-0.0316226
-0.0316226
-0.0316226
-0.0316226
-0.0316226
-0.0316226
-0.0316226
-0.0316226
-0.0316226
-0.0316226
-0.0316226
-0.0316226
-0.0316226
-0.0316226
-0.0316226
-0.0316226
-0.0316226
-0.0316226
-0.0316226
-0.0316226
-0.0316226
-0.0316226
-0.0316226
-0.0316226
-0.0316226
-0.0316226
-0.0316226
-0.0316226
-0.0316226
-0.0316226
-0.0316226
-0.0316226
-0.0316226
-0.0316226
-0.0316226
-0.0316226
-0.0316226
-0.0316226
-0.0316226
-0.0316226
-0.0316226
-0.0316226
-0.0316226
-0.0316226
-0.0316226
-0.0316226
-0.0316226
-0.0316226
-0.0316226
-0.0316226
-0.0316226
-0.0316226
-0.0316226
-0.0316226
-0.0316226
-0.0316226
-0.0316226
-0.0316226
-0.0316226
-0.0316226
-0.0316226
-0.0316226
-0.0316226
-0.0316226
-0.0316226
-0.0316226
-0.0316226
-0.0316226
-0.0316226
-0.0316226
-0.0316226
-0.0316226
-0.0316226
-0.0316226
-0.0316226
-0.0316226
-0.0316226
-0.0316226
-0.0316226
-0.0316226
-0.0316226
-0.0316226
-0.0316226
-0.0316226
-0.0316226
-0.0316226
-0.0316226
-0.0316226
-0.0316226
-0.0316226
-0.0316226
-0.0316226
-0.0316226
-0.0316226
-0.0316226
-0.0316226
-0.0316226
-0.0316226
-0.0316226
-0.0316226
-0.0316226
-0.0316226
-0.0316226
-0.0316226
-0.0316226
-0.0316226
-0.0316226
-0.0316226
-0.0316226
-0.0316226
-0.0316226
-0.0316226
-0.0316226
-0.0316226
-0.0316226
-0.0316226
-0.0316226
-0.0316226
-0.0316226
-0.0316226
-0.0316226
-0.0316226
-0.0316226
-0.0316226
-0.0316226
-0.0316226
-0.0316226
-0.0316226
-0.0316226
-0.0316226
-0.0316226
-0.0316226
-0.0316226
-0.0316226
-0.0316226
-0.0316226
-0.0316226
-0.0316226
-0.0316226
-0.0316226
-0.0316226
-0.0316226
-0.0316226
-0.0316226
-0.0316226
-0.0316226
-0.0316226
-0.0316226
-0.0316226
-0.0316226
-0.0316226
-0.0316226
-0.0316226
-0.0316226
-0.0316226
-0.0316226
-0.0316226
-0.0316226
-0.0316226
-0.0316226
-0.0316226
-0.0316226
-0.0316226
-0.0316226
-0.0316226
-0.0316226
-0.0316226
-0.0316226
-0.0316226
-0.0316226
-0.0316226
-0.0316226
-0.0316226
-0.0316226
-0.0316226
-0.0316226
-0.0316226
-0.0316226
-0.0316226
-0.0316226
-0.0316226
-0.0316226
-0.0316226
-0.0316226
-0.0316226
-0.0316226
-0.0316226
-0.0316226
-0.0316226
-0.0316226
-0.0316226
-0.0316226
-0.0316226
-0.0316226
-0.0316226
-0.0316226
-0.0316226
-0.0316226
-0.0316226
-0.0316226
-0.0316226
-0.0316226
-0.0316226
-0.0316226
-0.0316226
-0.0316226
-0.0316226
-0.0316226
-0.0316226
-0.0316226
-0.0316226
-0.0316226
-0.0316226
-0.0316226
-0.0316226
-0.0316226
-0.0316226
-0.0316226
-0.0316226
-0.0316226
-0.0316226
-0.0316226
-0.0316226
-0.0316226
-0.0316226
-0.0316226
-0.0316226
-0.0316226
-0.0316226
-0.0316226
-0.0316226
-0.0316226
-0.0316226
-0.0316226
-0.0316226
-0.0316226
-0.0316226
-0.0316226
-0.0316226
-0.0316226
-0.0316226
-0.0316226
-0.0316226
-0.0316226
-0.0316226
-0.0316226
-0.0316226
-0.0316226
-0.0316226
-0.0316226
-0.0316226
-0.0316226
-0.0316226
-0.0316226
-0.0316226
-0.0316226
-0.0316226
-0.0316226
-0.0316226
-0.0316226
-0.0316226
-0.0316226
-0.0316226
-0.0316226
-0.0316226
-0.0316226
-0.0316226
-0.0316226
-0.0316226
-0.0316226
-0.0316226
-0.0316226
-0.0316226
-0.0316226
-0.0316226
-0.0316226
-0.0316226
-0.0316226
-0.0316226
-0.0316226
-0.0316226
-0.0316226
-0.0316226
-0.0316226
-0.0316226
-0.0316226
-0.0316226
-0.0316226
-0.0316226
-0.0316226
-0.0316226
-0.0316226
-0.0316226
-0.0316226
-0.0316226
-0.0316226
-0.0316226
-0.0316226
-0.0316226
-0.0316226
-0.0316226
-0.0316226
-0.0316226
-0.0316226
-0.0316226
-0.0316226
-0.0316226
-0.0316226
-0.0316226
-0.0316226
-0.0316226
-0.0316226
-0.0316226
-0.0316226
-0.0316226
-0.0316226
-0.0316226
-0.0316226
-0.0316226
-0.0316226
-0.0316226
-0.0316226
-0.0316226
-0.0316226
-0.0316226
-0.0316226
-0.0316226
-0.0316226
-0.0316226
-0.0316226
-0.0316226
-0.0316226
-0.0316226
-0.0316226
-0.0316226
-0.0316226
-0.0316226
-0.0316226
-0.0316226
-0.0316226
-0.0316226
-0.0316226
-0.0316226
-0.0316226
-0.0316226
-0.0316226
-0.0316226
-0.0316226
-0.0316226
-0.0316226
-0.0316226
-0.0316226
-0.0316226
-0.0316226
-0.0316226
-0.0316226
-0.0316226
-0.0316226
-0.0316226
-0.0316226
-0.0316226
-0.0316226
-0.0316226
-0.0316226
-0.0316226
-0.0316226
-0.0316226
-0.0316226
-0.0316226
-0.0316226
-0.0316226
-0.0316226
-0.0316226
-0.0316226
-0.0316226
-0.0316226
-0.0316226
-0.0316226
-0.0316226
-0.0316226
-0.0316226
-0.0316226
-0.0316226
-0.0316226
-0.0316226
-0.0316226
-0.0316226
-0.0316226
-0.0316226
-0.0316226
-0.0316226
-0.0316226
-0.0316226
-0.0316226
-0.0316226
-0.0316226
-0.0316226
-0.0316226
-0.0316226
-0.0316226
-0.0316226
-0.0316226
-0.0316226
-0.0316226
-0.0316226
-0.0316226
-0.0316226
-0.0316226
-0.0316226
-0.0316226
-0.0316226
-0.0316226
-0.0316226
-0.0316226
-0.0316226
-0.0316226
-0.0316226
-0.0316226
-0.0316226
-0.0316226
-0.0316226
-0.0316226
-0.0316226
-0.0316226
-0.0316226
-0.0316226
-0.0316226
-0.0316226
-0.0316226
-0.0316226
-0.0316226
-0.0316226
-0.0316226
-0.0316226
-0.0316226
-0.0316226
-0.0316226
-0.0316226
-0.0316226
-0.0316226
-0.0316226
-0.0316226
-0.0316226
-0.0316226
-0.0316226
-0.0316226
-0.0316226
-0.0316226
-0.0316226
-0.0316226
-0.0316226
-0.0316226
-0.0316226
-0.0316226
-0.0316226
-0.0316226
-0.0316226
-0.0316226
-0.0316226
-0.0316226
-0.0316226
-0.0316226
-0.0316226
-0.0316226
-0.0316226
-0.0316226
-0.0316226
-0.0316226
-0.0316226
-0.0316226
-0.0316226
-0.0316226
-0.0316226
-0.0316226
-0.0316226
-0.0316226
-0.0316226
-0.0316226
-0.0316226
-0.0316226
-0.0316226
-0.0316226
-0.0316226
-0.0316226
-0.0316226
-0.0316226
-0.0316226
-0.0316226
-0.0316226
-0.0316226
-0.0316226
-0.0316226
-0.0316226
-0.0316226
-0.0316226
-0.0316226
-0.0316226
-0.0316226
-0.0316226
-0.0316226
-0.0316226
-0.0316226
-0.0316226
-0.0316226
-0.0316226
-0.0316226
-0.0316226
-0.0316226
-0.0316226
-0.0316226
-0.0316226
-0.0316226
-0.0316226
-0.0316226
-0.0316226
-0.0316226
-0.0316226
-0.0316226
-0.0316226
-0.0316226
-0.0316226
-0.0316226
-0.0316226
-0.0316226
-0.0316226
-0.0316226
-0.0316226
-0.0316226
-0.0316226
-0.0316226
-0.0316226
-0.0316226
-0.0316226
-0.0316226
-0.0316226
-0.0316226
-0.0316226
-0.0316226
-0.0316226
-0.0316226
-0.0316226
-0.0316226
-0.0316226
-0.0316226
-0.0316226
-0.0316226
-0.0316226
-0.0316226
-0.0316226
-0.0316226
-0.0316226
-0.0316226
-0.0316226
-0.0316226
-0.0316226
-0.0316226
-0.0316226
-0.0316226
-0.0316226
-0.0316226
-0.0316226
-0.0316226
-0.0316226
-0.0316226
-0.0316226
-0.0316226
-0.0316226
-0.0316226
-0.0316226
-0.0316226
-0.0316226
-0.0316226
-0.0316226
-0.0316226
-0.0316226
-0.0316226
-0.0316226
-0.0316226
-0.0316226
-0.0316226
-0.0316226
-0.0316226
-0.0316226
-0.0316226
-0.0316226
-0.0316226
-0.0316226
-0.0316226
-0.0316226
-0.0316226
-0.0316226
-0.0316226
-0.0316226
-0.0316226
-0.0316226
-0.0316226
-0.0316226
-0.0316226
-0.0316226
-0.0316226
-0.0316226
-0.0316226
-0.0316226
-0.0316226
-0.0316226
-0.0316226
-0.0316226
-0.0316226
-0.0316226
-0.0316226
-0.0316226
-0.0316226
-0.0316226
-0.0316226
-0.0316226
-0.0316226
-0.0316226
-0.0316226
-0.0316226
-0.0316226
-0.0316226
-0.0316226
-0.0316226
-0.0316226
-0.0316226
-0.0316226
-0.0316226
-0.0316226
-0.0316226
-0.0316226
-0.0316226
-0.0316226
-0.0316226
-0.0316226
-0.0316226
-0.0316226
-0.0316226
-0.0316226
-0.0316226
-0.0316226
-0.0316226
-0.0316226
-0.0316226
-0.0316226
-0.0316226
-0.0316226
-0.0316226
-0.0316226
-0.0316226
-0.0316226
-0.0316226
-0.0316226
-0.0316226
-0.0316226
-0.0316226
-0.0316226
-0.0316226
-0.0316226
-0.0316226
-0.0316226
-0.0316226
-0.0316226
-0.0316226
-0.0316226
-0.0316226
-0.0316226
-0.0316226
-0.0316226
-0.0316226
-0.0316226
-0.0316226
-0.0316226
-0.0316226
-0.0316226
