-0.0782124
-0.0782124
-0.0824478
-0.0824478
-0.0866833
-0.103625
-0.15445
-0.158686
-0.103625
-0.0697415
-0.0443289
-0.0231517
-0.00620994
0.00226094
-0.0019745
-0.0146808
-0.0316226
-0.0612706
-0.120567
-0.239159
-0.34928
-0.425518
-0.480579
-0.514462
-0.539875
-0.556817
-0.556817
-0.531404
-0.484814
-0.412812
-0.285749
-0.15445
-0.0443289
-0.0146808
-0.0019745
0.0107318
0.0192027
0.031909
0.0446153
0.0530862
0.0615571
0.0657925
0.0700279
0.0742634
0.0742634
0.0742634
0.0742634
0.0700279
0.0700279
0.0615571
0.0573216
0.0530862
0.0446153
0.0403799
0.0403799
0.0361444
0.031909
0.0276736
0.0234381
0.0107318
-0.0231517
-0.0189162
0.0530862
0.116618
0.175914
0.218268
0.247916
0.273329
0.302977
0.324154
0.336861
0.341096
0.336861
0.332625
0.32839
0.324154
0.319919
0.315683
0.324154
0.336861
0.353802
0.366509
0.379215
0.391921
0.408863
0.417334
0.421569
0.421569
0.413098
0.396157
0.374979
0.345331
0.311448
0.260623
0.167443
0.120853
0.0827342
0.0488507
0.0573216
0.125089
0.197091
0.273329
0.341096
0.408863
0.47663
0.544397
0.590987
0.62487
0.650283
0.662989
0.67146
0.662989
0.633341
0.599458
0.557103
0.502043
0.417334
0.362273
0.332625
0.315683
0.302977
0.290271
0.2818
0.273329
0.264858
0.252152
0.239445
0.222504
0.205562
0.18862
0.163208
0.125089
0.0530862
-0.0019745
-0.0527998
-0.10786
-0.15445
-0.192569
-0.226453
-0.251865
-0.251865
-0.222217
-0.179863
-0.162921
-0.145979
-0.137508
-0.120567
-0.103625
-0.0866833
-0.0697415
-0.0527998
-0.0485643
-0.0485643
-0.0527998
-0.0655061
-0.0866833
-0.103625
-0.124802
-0.145979
-0.162921
-0.179863
-0.213746
-0.336574
-0.408576
-0.425518
-0.44246
-0.459402
-0.476344
-0.493285
-0.505992
-0.518698
-0.527169
-0.531404
-0.539875
-0.539875
-0.539875
-0.53564
-0.527169
-0.518698
-0.514462
-0.505992
-0.501756
-0.497521
-0.484814
-0.476344
-0.463637
-0.446695
-0.357751
-0.175627
0.0403799
0.264858
0.497807
0.747698
0.832407
0.878996
0.857819
0.67146
0.366509
0.0192027
-0.277278
-0.501756
-0.620348
-0.73047
-0.815179
-0.861768
-0.891416
-0.899887
-0.861768
-0.789766
-0.721999
-0.649996
-0.5907
-0.539875
-0.455166
-0.332339
-0.277278
-0.256101
-0.243394
-0.234924
-0.230688
-0.226453
-0.226453
-0.222217
-0.217982
-0.217982
-0.213746
-0.205276
-0.20104
-0.192569
-0.188334
-0.179863
-0.171392
-0.158686
-0.141744
-0.120567
-0.0951541
-0.0739769
-0.0443289
0.0149672
0.0742634
0.0869697
0.0912051
0.0954406
0.103911
0.108147
0.116618
0.120853
0.125089
0.137795
0.163208
0.192856
0.230975
0.264858
0.294506
0.32839
0.353802
0.374979
0.391921
0.408863
0.425805
0.446982
0.472394
0.489336
0.502043
0.506278
0.489336
0.463924
0.438511
0.413098
0.374979
0.349567
0.349567
0.38345
0.421569
0.438511
0.446982
0.459688
0.47663
0.489336
0.506278
0.518984
0.531691
0.540161
0.548632
0.552868
0.552868
0.544397
0.540161
0.531691
0.52322
0.506278
0.489336
0.468159
0.442746
0.417334
0.391921
0.324154
0.163208
0.0742634
0.0234381
-0.0189162
-0.035858
-0.0316226
-0.00620994
0.0446153
0.0912051
0.14203
0.205562
0.260623
0.273329
0.277564
0.277564
0.286035
0.290271
0.294506
0.302977
0.307212
0.311448
0.315683
0.32839
0.345331
0.370744
0.400392
0.459688
0.586751
0.679931
0.734992
0.76464
0.773111
0.781581
0.794288
0.806994
0.815465
0.794288
0.743463
0.709579
0.675695
0.646047
0.629106
0.641812
0.662989
0.688402
0.709579
0.739227
0.760404
0.760404
0.734992
0.696873
0.637577
0.535926
0.442746
0.374979
0.345331
0.324154
0.302977
0.294506
0.32839
0.38345
0.408863
0.425805
0.438511
0.451217
0.459688
0.472394
0.489336
0.506278
0.518984
0.527455
0.527455
0.52322
0.514749
0.510513
0.506278
0.493572
0.480865
0.468159
0.451217
0.442746
0.438511
0.434276
0.421569
0.404628
0.391921
0.387686
0.396157
0.408863
0.417334
0.425805
0.434276
0.455453
0.47663
0.497807
0.497807
0.485101
0.459688
0.438511
0.425805
0.408863
0.387686
0.366509
0.349567
0.341096
0.345331
0.358038
0.370744
0.38345
0.400392
0.421569
0.442746
0.468159
0.493572
0.527455
0.574045
0.662989
0.794288
0.86629
0.91288
0.938293
0.938293
0.908645
0.862055
0.790052
0.667225
0.527455
0.400392
0.307212
0.230975
0.158972
0.0657925
-0.0570352
-0.162921
-0.226453
-0.281513
-0.328103
-0.400106
-0.518698
-0.5907
-0.628819
-0.658467
-0.679645
-0.692351
-0.688115
-0.671174
-0.649996
-0.628819
-0.607642
-0.594936
-0.573759
-0.552581
-0.53564
-0.522933
-0.527169
-0.531404
-0.539875
-0.548346
-0.556817
-0.565288
-0.582229
-0.594936
-0.603407
-0.594936
-0.565288
-0.522933
-0.374693
-0.162921
-0.0570352
0.00649637
0.0573216
0.0530862
-0.0146808
-0.205276
-0.400106
-0.63729
-0.887181
-1.1286
-1.2006
-1.21755
-1.23025
-1.23872
-1.24296
-1.24296
-1.23449
-1.21331
-1.1879
-1.15825
-1.13707
-1.10319
-1.06507
-1.02271
-0.976125
-0.938006
-0.895652
-0.866004
-0.866004
-0.887181
-0.912594
-0.9253
-0.938006
-0.950713
-0.963419
-0.97189
-0.976125
-0.967654
-0.946477
-0.9253
-0.904123
-0.887181
-0.87871
-0.866004
-0.849062
-0.83212
-0.819414
-0.806708
-0.794001
-0.781295
-0.764353
-0.743176
-0.726234
-0.709293
-0.688115
-0.654232
-0.616113
-0.577994
-0.54411
-0.510227
-0.484814
-0.450931
-0.421283
-0.391635
-0.378928
-0.387399
-0.408576
-0.438225
-0.467873
-0.497521
-0.53564
-0.573759
-0.611878
-0.641526
-0.675409
-0.738941
-0.840591
-0.904123
-0.946477
-0.967654
-0.963419
-0.9253
-0.861768
-0.760118
-0.628819
-0.548346
-0.484814
-0.391635
-0.323868
-0.268807
-0.226453
-0.205276
-0.217982
-0.260336
-0.306926
-0.361987
-0.429754
-0.463637
-0.438225
-0.383164
-0.29422
-0.179863
-0.0993896
-0.0443289
-0.0443289
-0.0909187
-0.209511
-0.408576
-0.531404
-0.599171
-0.633055
-0.658467
-0.675409
-0.68388
-0.68388
-0.675409
-0.654232
-0.624584
-0.603407
-0.586465
-0.561052
-0.539875
-0.514462
-0.501756
-0.501756
-0.514462
-0.53564
-0.565288
-0.599171
-0.633055
-0.68388
-0.73047
-0.734705
-0.688115
-0.628819
-0.577994
-0.531404
-0.493285
-0.463637
-0.438225
-0.412812
-0.391635
-0.374693
-0.361987
-0.357751
-0.357751
-0.357751
-0.353516
-0.345045
-0.336574
-0.328103
-0.319632
-0.311161
-0.306926
-0.298455
-0.289984
-0.281513
-0.273043
-0.260336
-0.243394
-0.222217
-0.205276
-0.184098
-0.162921
-0.137508
-0.112096
-0.0866833
-0.0655061
-0.0443289
-0.0316226
-0.0231517
-0.0104454
0.00226094
0.0149672
0.031909
0.0488507
0.0700279
0.0827342
0.099676
0.116618
0.137795
0.154737
0.167443
0.175914
0.171678
0.163208
0.150501
0.133559
0.116618
0.0954406
0.0700279
0.0276736
-0.0146808
-0.0527998
-0.0951541
-0.145979
-0.145979
-0.0866833
-0.0400934
-0.00620994
0.0234381
0.0403799
0.0276736
-0.0104454
-0.0527998
-0.112096
-0.20104
-0.273043
-0.323868
-0.357751
-0.391635
-0.425518
-0.463637
-0.501756
-0.556817
-0.63729
-0.688115
-0.73047
-0.772824
-0.772824
-0.721999
-0.586465
-0.400106
-0.192569
-0.0570352
0.0912051
0.243681
0.341096
0.413098
0.442746
0.425805
0.38345
0.307212
0.239445
0.214033
0.201326
0.18862
0.180149
0.180149
0.192856
0.209797
0.226739
0.252152
0.264858
0.260623
0.201326
0.129324
0.0827342
0.0361444
-0.00620994
-0.0443289
-0.0697415
-0.0782124
-0.0782124
-0.0739769
-0.0655061
-0.0570352
-0.0443289
-0.0231517
-0.0316226
-0.103625
-0.145979
-0.179863
-0.205276
-0.230688
-0.24763
-0.251865
-0.24763
-0.243394
-0.230688
-0.209511
-0.184098
-0.133273
-0.0443289
0.0784988
0.294506
0.603693
0.989118
1.39148
1.72608
1.92091
1.93362
1.78538
1.33219
0.713814
0.108147
-0.34928
-0.501756
-0.552581
-0.459402
-0.353516
-0.264572
-0.256101
-0.315397
-0.408576
-0.493285
-0.53564
-0.565288
-0.577994
-0.561052
-0.531404
-0.501756
-0.472108
-0.459402
-0.497521
-0.556817
-0.607642
-0.649996
-0.688115
-0.700822
-0.68388
-0.654232
-0.607642
-0.53564
-0.412812
-0.277278
-0.158686
0.0234381
0.218268
0.341096
0.485101
0.56981
0.595222
0.616399
0.629106
0.62487
0.582516
0.527455
0.485101
0.451217
0.421569
0.391921
0.366509
0.345331
0.324154
0.302977
0.277564
0.256387
0.218268
0.192856
0.192856
0.226739
0.277564
0.324154
0.38345
0.446982
0.514749
0.561339
0.595222
0.62487
0.654518
0.684166
0.709579
0.730756
0.760404
0.815465
0.942528
1.06536
1.1543
1.22207
1.27713
1.32372
1.34066
1.2983
1.2263
1.18818
1.16277
1.14159
1.12465
1.10771
1.09077
1.07383
1.06112
1.04841
1.03571
1.023
1.0103
0.993353
0.976412
0.950999
0.895938
0.836642
0.781581
0.739227
0.688402
0.637577
0.599458
0.565574
0.535926
0.518984
0.518984
0.540161
0.574045
0.612164
0.658754
0.71805
0.760404
0.785817
0.806994
0.828171
0.849348
0.862055
0.862055
0.836642
0.794288
0.747698
0.701108
0.650283
0.595222
0.548632
0.489336
0.38345
0.23521
0.137795
0.0700279
0.0700279
0.154737
0.277564
0.408863
0.459688
0.480865
0.497807
0.510513
0.531691
0.557103
0.57828
0.603693
0.637577
0.679931
0.739227
0.794288
0.845113
0.934057
1.03147
1.07383
1.10771
1.12465
1.09924
1.03994
0.972176
0.887467
0.811229
0.781581
0.76464
0.751933
0.739227
0.726521
0.713814
0.701108
0.688402
0.675695
0.667225
0.654518
0.637577
0.62487
0.612164
0.599458
0.56981
0.506278
0.451217
0.408863
0.345331
0.23521
0.163208
0.129324
0.099676
0.0700279
0.0361444
0.00649637
-0.0316226
-0.0824478
-0.171392
-0.239159
-0.306926
-0.374693
-0.450931
-0.514462
-0.569523
-0.628819
-0.692351
-0.77706
-0.861768
-0.891416
-0.904123
-0.912594
-0.916829
-0.9253
-0.933771
-0.942242
-0.954948
-0.967654
-0.984596
-1.00577
-1.03119
-1.09048
-1.20907
-1.28531
-1.3319
-1.34461
-1.3192
-1.26837
-1.21331
-1.14978
-1.08201
-1.01424
-0.942242
-0.853297
-0.806708
-0.781295
-0.760118
-0.743176
-0.726234
-0.713528
-0.696586
-0.68388
-0.671174
-0.662703
-0.658467
-0.649996
-0.645761
-0.63729
-0.611878
-0.561052
-0.518698
-0.484814
-0.455166
-0.438225
-0.455166
-0.484814
-0.497521
-0.505992
-0.514462
-0.527169
-0.53564
-0.548346
-0.565288
-0.582229
-0.599171
-0.616113
-0.633055
-0.645761
-0.658467
-0.671174
-0.692351
-0.713528
-0.734705
-0.751647
-0.760118
-0.755882
-0.743176
-0.73047
-0.709293
-0.68388
-0.649996
-0.582229
-0.510227
-0.429754
-0.357751
-0.332339
-0.315397
-0.29422
-0.302691
-0.357751
-0.387399
-0.404341
-0.421283
-0.438225
-0.446695
-0.455166
-0.463637
-0.467873
-0.472108
-0.467873
-0.455166
-0.44246
-0.425518
-0.404341
-0.383164
-0.357751
-0.328103
-0.281513
-0.234924
-0.213746
-0.192569
-0.175627
-0.15445
-0.141744
-0.145979
-0.175627
-0.209511
-0.239159
-0.277278
-0.302691
-0.306926
-0.268807
-0.196805
0.0149672
0.302977
0.637577
0.972176
1.26866
1.39148
1.43384
1.35337
1.09924
0.751933
0.374979
0.0234381
-0.285749
-0.497521
-0.573759
-0.594936
-0.569523
-0.514462
-0.438225
-0.319632
-0.209511
-0.0909187
-0.0231517
0.0192027
0.0446153
0.0573216
0.0488507
0.0192027
-0.0231517
-0.0739769
-0.15445
-0.196805
-0.230688
-0.260336
-0.273043
-0.24763
-0.192569
-0.112096
-0.00620994
0.0403799
0.0615571
0.0784988
0.0912051
0.099676
0.099676
0.0954406
0.0869697
0.0657925
0.0446153
0.0234381
-0.0019745
-0.0316226
-0.0655061
-0.0824478
-0.0739769
-0.0443289
-0.0104454
0.031909
0.0869697
0.150501
0.222504
0.2818
0.345331
0.396157
0.434276
0.468159
0.493572
0.518984
0.540161
0.565574
0.599458
0.629106
0.662989
0.692637
0.71805
0.743463
0.768875
0.781581
0.794288
0.802759
0.806994
0.823936
0.849348
0.760404
0.688402
0.646047
0.612164
0.582516
0.565574
0.548632
0.535926
0.510513
0.47663
0.480865
0.531691
0.565574
0.590987
0.612164
0.629106
0.641812
0.637577
0.616399
0.582516
0.544397
0.506278
0.463924
0.404628
0.345331
0.311448
0.290271
0.277564
0.273329
0.269093
0.260623
0.252152
0.243681
0.230975
0.222504
0.214033
0.205562
0.197091
0.18862
0.180149
0.167443
0.158972
0.150501
0.137795
0.125089
0.0912051
0.0615571
0.0615571
0.0954406
0.137795
0.184385
0.239445
0.286035
0.319919
0.349567
0.379215
0.400392
0.408863
0.396157
0.358038
0.324154
0.307212
0.290271
0.277564
0.260623
0.247916
0.230975
0.214033
0.192856
0.171678
0.150501
0.133559
0.116618
0.0954406
0.0742634
0.0446153
-0.0231517
-0.0782124
-0.133273
-0.162921
-0.184098
-0.205276
-0.226453
-0.243394
-0.264572
-0.285749
-0.302691
-0.311161
-0.319632
-0.328103
-0.340809
-0.353516
-0.374693
-0.408576
-0.44246
-0.446695
-0.429754
-0.412812
-0.400106
-0.391635
-0.378928
-0.366222
-0.353516
-0.340809
-0.323868
-0.302691
-0.281513
-0.260336
-0.239159
-0.226453
-0.213746
-0.192569
-0.167157
-0.145979
-0.137508
-0.150215
-0.184098
-0.222217
-0.256101
-0.281513
-0.306926
-0.340809
-0.374693
-0.400106
-0.421283
-0.421283
-0.417047
-0.400106
-0.383164
-0.361987
-0.340809
-0.323868
-0.29422
-0.264572
-0.239159
-0.226453
-0.217982
-0.213746
-0.213746
-0.205276
-0.196805
-0.188334
-0.179863
-0.175627
-0.171392
-0.171392
-0.167157
-0.158686
-0.158686
-0.15445
-0.15445
-0.150215
-0.150215
-0.141744
-0.137508
-0.137508
-0.15445
-0.179863
-0.213746
-0.268807
-0.383164
-0.463637
-0.510227
-0.561052
-0.624584
-0.68388
-0.734705
-0.77706
-0.810943
-0.836356
-0.853297
-0.866004
-0.87871
-0.887181
-0.899887
-0.912594
-0.921064
-0.929535
-0.929535
-0.921064
-0.899887
-0.874475
-0.849062
-0.819414
-0.781295
-0.738941
-0.705057
-0.666938
-0.603407
-0.493285
-0.374693
-0.243394
-0.137508
-0.0655061
-0.0104454
0.0403799
0.0700279
0.0912051
0.112382
0.125089
0.133559
0.137795
0.133559
0.125089
0.108147
0.0869697
0.0615571
0.031909
0.00226094
-0.035858
-0.0697415
-0.0866833
-0.0739769
-0.0527998
-0.0104454
0.116618
0.32839
0.590987
0.862055
1.11195
1.32372
1.40419
1.40419
1.31525
1.06959
0.637577
0.163208
-0.260336
-0.586465
-0.688115
-0.734705
-0.721999
-0.561052
-0.306926
-0.184098
-0.0993896
-0.0485643
-0.137508
-0.239159
-0.319632
-0.332339
-0.289984
-0.175627
0.0700279
0.167443
0.218268
0.256387
0.243681
0.158972
0.103911
0.0700279
0.0403799
0.0234381
0.00226094
-0.0231517
-0.0400934
-0.0612706
-0.0866833
-0.10786
-0.129038
-0.15445
-0.179863
-0.20104
-0.205276
-0.192569
-0.171392
-0.145979
-0.116331
-0.0612706
0.0530862
0.120853
0.158972
0.192856
0.214033
0.222504
0.218268
0.209797
0.197091
0.184385
0.175914
0.167443
0.154737
0.146266
0.137795
0.129324
0.120853
0.112382
0.103911
0.099676
0.099676
0.099676
0.099676
0.103911
0.103911
0.108147
0.112382
0.120853
0.125089
0.129324
0.129324
0.133559
0.137795
0.150501
0.163208
0.171678
0.180149
0.184385
0.18862
0.197091
0.205562
0.214033
0.226739
0.23521
0.247916
0.264858
0.277564
0.294506
0.302977
0.307212
0.307212
0.302977
0.302977
0.302977
0.298742
0.286035
0.273329
0.260623
0.252152
0.247916
0.239445
0.226739
0.214033
0.175914
0.112382
0.108147
0.108147
0.103911
0.0912051
0.0827342
0.0742634
0.0700279
0.0827342
0.103911
0.120853
0.137795
0.150501
0.171678
0.192856
0.214033
0.226739
0.218268
0.192856
0.158972
0.125089
0.103911
0.0912051
0.0784988
0.0573216
0.031909
0.00649637
-0.0104454
-0.0231517
-0.0316226
-0.035858
-0.0485643
-0.0612706
-0.0697415
-0.0697415
-0.0570352
-0.0443289
-0.0316226
-0.0189162
-0.00620994
0.0149672
0.0361444
0.0530862
0.0657925
0.0700279
0.0742634
0.0742634
0.0784988
0.0869697
0.103911
0.116618
0.125089
0.133559
0.146266
0.158972
0.175914
0.18862
0.192856
0.192856
0.18862
0.184385
0.180149
0.180149
0.175914
0.167443
0.163208
0.158972
0.158972
0.163208
0.175914
0.18862
0.197091
0.205562
0.209797
0.218268
0.226739
0.226739
0.226739
0.226739
0.230975
0.243681
0.277564
0.315683
0.349567
0.366509
0.366509
0.362273
0.353802
0.345331
0.332625
0.315683
0.290271
0.273329
0.264858
0.264858
0.273329
0.2818
0.290271
0.307212
0.341096
0.345331
0.307212
0.286035
0.264858
0.247916
0.230975
0.226739
0.23521
0.256387
0.277564
0.302977
0.32839
0.366509
0.404628
0.43004
0.438511
0.421569
0.400392
0.379215
0.358038
0.32839
0.307212
0.311448
0.362273
0.425805
0.468159
0.510513
0.548632
0.582516
0.599458
0.599458
0.582516
0.557103
0.518984
0.480865
0.446982
0.400392
0.353802
0.324154
0.302977
0.290271
0.277564
0.269093
0.264858
0.256387
0.252152
0.252152
0.247916
0.243681
0.239445
0.239445
0.243681
0.260623
0.273329
0.294506
0.311448
0.336861
0.362273
0.387686
0.417334
0.451217
0.485101
0.527455
0.595222
0.853584
1.15854
1.51008
1.62443
1.71761
1.45925
0.929822
0.264858
-0.319632
-0.611878
-0.717763
-0.755882
-0.726234
-0.658467
-0.586465
-0.493285
-0.391635
-0.243394
-0.141744
-0.112096
-0.0866833
-0.0993896
-0.179863
-0.226453
-0.264572
-0.298455
-0.328103
-0.340809
-0.345045
-0.336574
-0.315397
-0.29422
-0.273043
-0.251865
-0.234924
-0.217982
-0.20104
-0.184098
-0.167157
-0.150215
-0.137508
-0.124802
-0.112096
-0.103625
-0.0909187
-0.0824478
-0.0739769
-0.0697415
-0.0612706
-0.0612706
-0.0655061
-0.0697415
-0.0739769
-0.0739769
-0.0697415
-0.0697415
-0.0612706
-0.0570352
-0.0527998
-0.0443289
-0.035858
-0.0273871
-0.0189162
-0.0104454
0.00226094
0.0149672
0.0361444
0.0573216
0.0912051
0.150501
0.201326
0.243681
0.273329
0.298742
0.319919
0.336861
0.349567
0.358038
0.358038
0.341096
0.315683
0.277564
0.23521
0.184385
0.108147
-0.0273871
-0.0993896
-0.175627
-0.251865
-0.315397
-0.34928
-0.370458
-0.387399
-0.408576
-0.421283
-0.438225
-0.446695
-0.459402
-0.472108
-0.484814
-0.505992
-0.527169
-0.548346
-0.569523
-0.586465
-0.607642
-0.620348
-0.633055
-0.645761
-0.649996
-0.649996
-0.645761
-0.645761
-0.649996
-0.654232
-0.658467
-0.662703
-0.662703
-0.662703
-0.662703
-0.662703
-0.662703
-0.662703
-0.649996
-0.641526
-0.628819
-0.620348
-0.611878
-0.607642
-0.603407
-0.594936
-0.573759
-0.552581
-0.561052
-0.603407
-0.658467
-0.692351
-0.721999
-0.747411
-0.764353
-0.768589
-0.760118
-0.738941
-0.709293
-0.68388
-0.666938
-0.649996
-0.63729
-0.624584
-0.607642
-0.594936
-0.577994
-0.556817
-0.53564
-0.518698
-0.505992
-0.48905
-0.480579
-0.467873
-0.459402
-0.450931
-0.44246
-0.421283
-0.383164
-0.340809
-0.323868
-0.332339
-0.361987
-0.408576
-0.463637
-0.548346
-0.620348
-0.662703
-0.68388
-0.705057
-0.726234
-0.747411
-0.77706
-0.802472
-0.827885
-0.853297
-0.887181
-0.933771
-1.04813
-1.22178
-1.28108
-1.31072
-1.3319
-1.34884
-1.35731
-1.37002
-1.37426
-1.36579
-1.34884
-1.32343
-1.28955
-1.25143
-1.20484
-1.14131
-1.07778
-1.03542
-0.997302
-0.929535
-0.789766
-0.497521
-0.256101
-0.167157
-0.137508
-0.167157
-0.217982
-0.24763
-0.273043
-0.289984
-0.306926
-0.315397
-0.323868
-0.319632
-0.302691
-0.289984
-0.273043
-0.256101
-0.234924
-0.213746
-0.175627
-0.141744
-0.116331
-0.116331
-0.150215
-0.192569
-0.239159
-0.277278
-0.315397
-0.353516
-0.383164
-0.39587
-0.383164
-0.357751
-0.315397
-0.260336
-0.188334
-0.0824478
-0.0316226
-0.0104454
0.00226094
0.0107318
0.0192027
0.0234381
0.0276736
0.031909
0.0403799
0.0488507
0.0573216
0.0700279
0.0869697
0.103911
0.116618
0.129324
0.146266
0.158972
0.171678
0.180149
0.192856
0.205562
0.226739
0.247916
0.269093
0.286035
0.298742
0.307212
0.307212
0.307212
0.302977
0.298742
0.290271
0.2818
0.269093
0.252152
0.239445
0.230975
0.239445
0.277564
0.32839
0.417334
0.561339
0.802759
1.14583
1.5609
1.94633
2.08186
2.03951
1.67949
1.09077
0.485101
0.0446153
-0.120567
-0.112096
-0.0231517
0.0276736
0.031909
0.00649637
-0.0231517
-0.0443289
0.0149672
0.0869697
0.146266
0.150501
0.099676
0.0657925
0.0361444
0.00649637
-0.00620994
-0.0019745
0.0149672
0.0361444
0.0573216
0.0657925
0.0742634
0.0827342
0.0869697
0.0954406
0.099676
0.108147
0.112382
0.116618
0.112382
0.108147
0.103911
0.099676
0.0954406
0.0912051
0.0869697
0.0827342
0.0742634
0.0700279
0.0657925
0.0530862
0.0403799
0.031909
0.0234381
0.0192027
0.0234381
0.0361444
0.0573216
0.0784988
0.103911
0.154737
0.154737
0.103911
0.0276736
-0.0782124
-0.145979
-0.188334
-0.217982
-0.226453
-0.213746
-0.184098
-0.145979
-0.0951541
-0.0273871
0.0361444
0.0784988
0.108147
0.133559
0.146266
0.154737
0.158972
0.163208
0.171678
0.180149
0.192856
0.184385
0.137795
0.108147
0.0827342
0.0615571
0.0446153
0.0403799
0.0361444
0.0403799
0.0403799
0.0446153
0.0573216
0.0276736
-0.0739769
-0.179863
-0.243394
-0.277278
-0.302691
-0.319632
-0.323868
-0.315397
-0.298455
-0.281513
-0.264572
-0.251865
-0.239159
-0.222217
-0.209511
-0.196805
-0.188334
-0.188334
-0.188334
-0.196805
-0.20104
-0.209511
-0.217982
-0.234924
-0.256101
-0.260336
-0.24763
-0.226453
-0.205276
-0.179863
-0.167157
-0.184098
-0.226453
-0.34928
-0.48905
-0.539875
-0.561052
-0.577994
-0.573759
-0.522933
-0.463637
-0.404341
-0.357751
-0.319632
-0.281513
-0.281513
-0.319632
-0.425518
-0.577994
-0.666938
-0.764353
-0.857533
-0.954948
-1.03966
-1.11166
-1.15401
-1.12437
-1.04389
-0.895652
-0.760118
-0.633055
-0.497521
-0.404341
-0.298455
-0.196805
-0.0909187
-0.0231517
0.00649637
0.0234381
0.0361444
0.0446153
0.0276736
-0.00620994
-0.0443289
-0.0909187
-0.150215
-0.184098
-0.171392
-0.145979
-0.124802
-0.0993896
-0.0866833
-0.112096
-0.162921
-0.196805
-0.222217
-0.243394
-0.260336
-0.273043
-0.281513
-0.289984
-0.29422
-0.302691
-0.311161
-0.319632
-0.328103
-0.336574
-0.34928
-0.357751
-0.357751
-0.353516
-0.345045
-0.332339
-0.315397
-0.281513
-0.209511
-0.137508
-0.0866833
-0.035858
-0.0019745
0.031909
0.0784988
0.129324
0.163208
0.18862
0.209797
0.226739
0.23521
0.243681
0.243681
0.247916
0.252152
0.256387
0.260623
0.269093
0.273329
0.277564
0.277564
0.273329
0.264858
0.256387
0.252152
0.23521
0.218268
0.256387
0.298742
0.336861
0.332625
0.273329
0.226739
0.192856
0.163208
0.14203
0.125089
0.112382
0.0954406
0.0700279
0.0657925
0.0912051
0.125089
0.154737
0.112382
0.0742634
0.0403799
0.0234381
0.0446153
0.0869697
0.133559
0.180149
0.209797
0.230975
0.243681
0.264858
0.273329
0.256387
0.218268
0.192856
0.171678
0.150501
0.137795
0.137795
0.150501
0.167443
0.192856
0.239445
0.319919
0.370744
0.396157
0.417334
0.43004
0.43004
0.417334
0.396157
0.366509
0.311448
0.222504
0.137795
0.0657925
0.0234381
-0.0019745
-0.0231517
-0.0189162
0.00649637
0.0403799
0.0657925
0.0954406
0.120853
0.137795
0.137795
0.125089
0.103911
0.0742634
0.0192027
-0.0697415
-0.137508
-0.171392
-0.205276
-0.239159
-0.268807
-0.29422
-0.323868
-0.345045
-0.353516
-0.345045
-0.323868
-0.285749
-0.167157
0.00649637
0.252152
0.552868
0.862055
1.07806
1.15006
1.07806
0.857819
0.434276
-0.0570352
-0.459402
-0.624584
-0.675409
-0.641526
-0.611878
-0.594936
-0.582229
-0.569523
-0.548346
-0.472108
-0.323868
-0.230688
-0.188334
-0.162921
-0.145979
-0.133273
-0.129038
-0.129038
-0.124802
-0.129038
-0.137508
-0.150215
-0.162921
-0.179863
-0.192569
-0.209511
-0.230688
-0.251865
-0.268807
-0.273043
-0.264572
-0.243394
-0.217982
-0.188334
-0.15445
-0.0951541
-0.0909187
-0.129038
-0.184098
-0.260336
-0.315397
-0.340809
-0.357751
-0.361987
-0.357751
-0.340809
-0.319632
-0.285749
-0.222217
-0.124802
-0.035858
0.0573216
0.112382
0.14203
0.167443
0.184385
0.192856
0.197091
0.18862
0.180149
0.167443
0.150501
0.125089
0.129324
0.171678
0.239445
0.290271
0.302977
0.311448
0.319919
0.319919
0.298742
0.273329
0.256387
0.243681
0.23521
0.222504
0.214033
0.197091
0.184385
0.167443
0.150501
0.125089
0.0784988
-0.0231517
-0.124802
-0.209511
-0.281513
-0.357751
-0.429754
-0.522933
-0.582229
-0.611878
-0.633055
-0.654232
-0.675409
-0.692351
-0.709293
-0.73047
-0.78553
-0.874475
-1.00577
-1.15401
-1.28108
-1.3192
-1.28531
-1.17943
-1.01848
-0.83212
-0.63729
-0.467873
-0.319632
-0.192569
-0.145979
-0.145979
-0.179863
-0.213746
-0.243394
-0.243394
-0.217982
-0.167157
-0.162921
-0.264572
-0.408576
-0.539875
-0.586465
-0.561052
-0.467873
-0.29422
-0.120567
0.031909
0.0869697
0.103911
0.120853
0.116618
0.0784988
0.0446153
0.0149672
0.00226094
0.00226094
0.00649637
0.0192027
0.031909
-0.0104454
-0.0443289
-0.0655061
-0.0824478
-0.0951541
-0.103625
-0.0909187
-0.0697415
-0.0400934
-0.0189162
0.0107318
0.0615571
0.0912051
0.0912051
0.0869697
0.0827342
0.0784988
0.0742634
0.0742634
0.0827342
0.099676
0.120853
0.137795
0.158972
0.167443
0.146266
0.103911
0.0700279
0.0361444
0.00649637
-0.0104454
-0.0273871
-0.0443289
-0.0655061
-0.0146808
0.0742634
0.175914
0.256387
0.311448
0.362273
0.404628
0.438511
0.463924
0.480865
0.493572
0.506278
0.518984
0.52322
0.52322
0.510513
0.497807
0.480865
0.468159
0.446982
0.43004
0.404628
0.379215
0.362273
0.353802
0.345331
0.336861
0.32839
0.319919
0.315683
0.311448
0.307212
0.298742
0.290271
0.286035
0.277564
0.269093
0.256387
0.243681
0.226739
0.209797
0.18862
0.171678
0.150501
0.120853
0.0700279
0.0234381
-0.0316226
-0.0993896
-0.192569
-0.323868
-0.378928
-0.404341
-0.425518
-0.455166
-0.48905
-0.518698
-0.548346
-0.569523
-0.569523
-0.552581
-0.522933
-0.472108
-0.404341
-0.311161
-0.20104
-0.167157
-0.15445
-0.145979
-0.141744
-0.141744
-0.162921
-0.205276
-0.328103
-0.514462
-0.671174
-0.73047
-0.760118
-0.78553
-0.819414
-0.895652
-0.997302
-1.03119
-0.984596
-0.844827
-0.700822
-0.654232
-0.620348
-0.5907
-0.539875
-0.472108
-0.425518
-0.391635
-0.370458
-0.34928
-0.29422
-0.150215
-0.0019745
0.129324
0.311448
0.616399
1.06959
1.59902
2.02256
2.1581
1.92938
1.39996
0.688402
-0.0400934
-0.616113
-0.899887
-0.942242
-0.861768
-0.649996
-0.455166
-0.328103
-0.24763
-0.188334
-0.15445
-0.137508
-0.15445
-0.184098
-0.209511
-0.226453
-0.24763
-0.264572
-0.281513
-0.298455
-0.319632
-0.34928
-0.34928
-0.311161
-0.260336
-0.20104
-0.162921
-0.129038
-0.0866833
0.0192027
0.129324
0.243681
0.269093
0.273329
0.277564
0.273329
0.247916
0.222504
0.18862
0.129324
0.0784988
0.0403799
0.0149672
0.0149672
0.031909
0.0530862
0.0827342
0.120853
0.171678
0.23521
0.315683
0.353802
0.379215
0.400392
0.408863
0.413098
0.404628
0.391921
0.366509
0.2818
0.197091
0.171678
0.154737
0.154737
0.167443
0.18862
0.218268
0.256387
0.298742
0.319919
0.336861
0.349567
0.358038
0.366509
0.370744
0.374979
0.370744
0.362273
0.349567
0.332625
0.311448
0.273329
0.18862
0.133559
0.099676
0.0784988
0.0615571
0.0488507
0.0403799
0.0276736
0.0149672
0.00649637
-0.00620994
-0.0189162
-0.0316226
-0.0400934
-0.0570352
-0.0993896
-0.171392
-0.24763
-0.319632
-0.446695
-0.556817
-0.688115
-0.726234
-0.734705
-0.743176
-0.738941
-0.700822
-0.645761
-0.577994
-0.514462
-0.446695
-0.400106
-0.366222
-0.353516
-0.370458
-0.404341
-0.438225
-0.472108
-0.514462
-0.561052
-0.63729
-0.738941
-0.83212
-0.916829
-0.988831
-1.06507
-1.14131
-1.23025
-1.3319
-1.41238
-1.48438
-1.55638
-1.60297
-1.63685
-1.63685
-1.58603
-1.45049
-1.26837
-1.09895
-0.916829
-0.721999
-0.514462
-0.34928
-0.29422
-0.264572
-0.260336
-0.273043
-0.298455
-0.345045
-0.408576
-0.459402
-0.493285
-0.450931
-0.378928
-0.306926
-0.277278
-0.264572
-0.256101
-0.251865
-0.24763
-0.243394
-0.239159
-0.239159
-0.234924
-0.230688
-0.226453
-0.222217
-0.222217
-0.222217
-0.222217
-0.222217
-0.222217
-0.222217
-0.217982
-0.209511
-0.205276
-0.192569
-0.167157
-0.213746
-0.264572
-0.306926
-0.328103
-0.336574
-0.345045
-0.353516
-0.345045
-0.285749
-0.192569
-0.0993896
-0.0655061
-0.0485643
-0.0400934
-0.0316226
-0.0273871
-0.0189162
-0.00620994
0.00649637
0.0192027
0.031909
0.0488507
0.0700279
0.112382
0.116618
0.0827342
0.0573216
0.0361444
0.0107318
-0.0146808
-0.0400934
-0.0951541
-0.171392
-0.217982
-0.24763
-0.268807
-0.289984
-0.315397
-0.336574
-0.366222
-0.404341
-0.404341
-0.361987
-0.328103
-0.298455
-0.268807
-0.239159
-0.20104
-0.133273
-0.0400934
0.0107318
0.0530862
0.0700279
0.0530862
0.0192027
-0.0146808
-0.0400934
-0.0739769
-0.112096
-0.15445
-0.188334
-0.222217
-0.256101
-0.289984
-0.315397
-0.340809
-0.366222
-0.404341
-0.425518
-0.412812
-0.361987
-0.217982
-0.0612706
0.0276736
0.108147
0.158972
0.184385
0.205562
0.226739
0.222504
0.192856
0.150501
0.108147
0.146266
0.252152
0.451217
0.730756
1.0823
1.52278
1.98868
2.34869
2.45881
2.40375
2.01833
1.33642
0.574045
-0.0443289
-0.370458
-0.476344
-0.408576
-0.20104
-0.0951541
-0.0655061
-0.0443289
-0.0146808
0.0276736
0.0742634
0.125089
0.154737
0.180149
0.197091
0.214033
0.226739
0.230975
0.222504
0.197091
0.167443
0.137795
0.0954406
0.0657925
0.0657925
0.0954406
0.133559
0.150501
0.158972
0.171678
0.184385
0.192856
0.201326
0.214033
0.226739
0.239445
0.247916
0.260623
0.269093
0.273329
0.277564
0.2818
0.286035
0.290271
0.298742
0.315683
0.332625
0.345331
0.353802
0.349567
0.341096
0.319919
0.290271
0.180149
0.0192027
-0.167157
-0.345045
-0.408576
-0.421283
-0.433989
-0.44246
-0.39587
-0.315397
-0.213746
-0.0993896
0.0107318
0.116618
0.180149
0.192856
0.197091
0.205562
0.209797
0.214033
0.218268
0.218268
0.214033
0.205562
0.192856
0.175914
0.150501
0.120853
0.0657925
0.00649637
-0.0485643
-0.112096
-0.171392
-0.209511
-0.230688
-0.251865
-0.264572
-0.277278
-0.289984
-0.302691
-0.315397
-0.323868
-0.336574
-0.34928
-0.361987
-0.374693
-0.387399
-0.400106
-0.408576
-0.417047
-0.425518
-0.438225
-0.446695
-0.455166
-0.459402
-0.459402
-0.463637
-0.463637
-0.463637
-0.463637
-0.459402
-0.455166
-0.450931
-0.446695
-0.438225
-0.425518
-0.412812
-0.429754
-0.472108
-0.522933
-0.586465
-0.624584
-0.658467
-0.688115
-0.68388
-0.620348
-0.527169
-0.421283
-0.370458
-0.34928
-0.332339
-0.311161
-0.285749
-0.260336
-0.222217
-0.137508
-0.0485643
-0.00620994
0.0192027
-0.0485643
-0.175627
-0.264572
-0.289984
-0.298455
-0.302691
-0.311161
-0.319632
-0.332339
-0.345045
-0.361987
-0.378928
-0.400106
-0.417047
-0.408576
-0.378928
-0.332339
-0.281513
-0.213746
-0.15445
-0.10786
-0.0655061
-0.035858
-0.0146808
0.00226094
0.0149672
0.0234381
0.031909
0.0361444
0.0403799
0.0488507
0.0573216
0.0615571
0.0615571
0.0615571
0.0615571
0.0615571
0.0615571
0.0657925
0.0700279
0.0827342
0.0912051
0.0912051
0.0827342
0.0742634
0.0700279
0.0615571
0.0530862
0.0446153
0.0403799
0.0403799
0.0446153
0.0530862
0.0657925
0.0742634
0.0912051
0.108147
0.112382
0.112382
0.112382
0.103911
0.0954406
0.0869697
0.0827342
0.0912051
0.112382
0.125089
0.14203
0.154737
0.175914
0.192856
0.222504
0.256387
0.214033
0.137795
0.0869697
0.0742634
0.0700279
0.0657925
0.0615571
0.0573216
0.0573216
0.0530862
0.0488507
0.0488507
0.0488507
0.0530862
0.0573216
0.0657925
0.0700279
0.0784988
0.0827342
0.0954406
0.112382
0.150501
0.171678
0.192856
0.209797
0.205562
0.175914
0.154737
0.137795
0.125089
0.112382
0.0954406
0.0784988
0.0530862
0.0149672
-0.0273871
-0.0612706
-0.0951541
-0.120567
-0.141744
-0.167157
-0.20104
-0.239159
-0.298455
-0.366222
-0.433989
-0.497521
-0.561052
-0.620348
-0.671174
-0.700822
-0.666938
-0.569523
-0.391635
-0.217982
-0.0782124
0.0446153
0.184385
0.32839
0.451217
0.514749
0.56981
0.637577
0.76464
0.967941
1.23054
1.49313
1.70491
1.8235
1.81926
1.68373
1.31525
0.815465
0.315683
-0.116331
-0.412812
-0.484814
-0.510227
-0.510227
-0.472108
-0.370458
-0.251865
-0.129038
-0.0400934
-0.0104454
-0.0146808
-0.0485643
-0.0866833
-0.124802
-0.124802
-0.10786
-0.0527998
0.0573216
0.180149
0.230975
0.256387
0.273329
0.226739
0.154737
0.0742634
0.0234381
-0.00620994
-0.0273871
-0.0443289
-0.0570352
-0.0697415
-0.0824478
-0.0951541
-0.10786
-0.116331
-0.120567
-0.112096
-0.0993896
-0.0782124
-0.0612706
-0.035858
-0.0019745
0.0276736
0.0530862
0.0657925
0.0742634
0.0784988
0.0869697
0.0912051
0.103911
0.112382
0.125089
0.129324
0.133559
0.146266
0.158972
0.180149
0.269093
0.366509
0.404628
0.404628
0.370744
0.319919
0.260623
0.175914
0.0700279
-0.0697415
-0.234924
-0.378928
-0.450931
-0.518698
-0.594936
-0.692351
-0.755882
-0.789766
-0.815179
-0.815179
-0.781295
-0.68388
-0.548346
-0.378928
-0.213746
-0.0782124
-0.0146808
0.0403799
0.103911
0.218268
0.387686
0.489336
0.489336
0.391921
0.239445
0.112382
0.0657925
0.0530862
0.0446153
0.0361444
0.031909
0.0276736
0.0234381
0.0276736
0.0403799
0.0657925
0.103911
0.150501
0.180149
0.197091
0.175914
0.103911
0.00226094
-0.0909187
-0.129038
-0.145979
-0.15445
-0.167157
-0.175627
-0.15445
-0.116331
-0.0485643
0.0192027
0.0573216
0.0827342
0.0954406
0.0827342
0.0615571
0.0361444
0.00649637
-0.0273871
-0.0443289
-0.0612706
-0.0782124
-0.0993896
-0.116331
-0.137508
-0.150215
-0.167157
-0.184098
-0.192569
-0.196805
-0.192569
-0.179863
-0.167157
-0.145979
-0.112096
-0.0485643
-0.00620994
0.0234381
0.0446153
0.0657925
0.0869697
0.108147
0.108147
0.0827342
0.0403799
-0.0104454
-0.103625
-0.230688
-0.383164
-0.527169
-0.658467
-0.78553
-0.908358
-1.03966
-1.10319
-1.1286
-1.09048
-0.967654
-0.810943
-0.599171
-0.34928
-0.171392
-0.10786
-0.0739769
-0.0824478
-0.133273
-0.162921
-0.175627
-0.171392
-0.145979
-0.0739769
0.0192027
0.0657925
0.0912051
0.112382
0.103911
0.0657925
0.0403799
0.0234381
0.0107318
-0.0019745
-0.0146808
-0.0231517
-0.0316226
-0.0443289
-0.0655061
-0.0993896
-0.129038
-0.15445
-0.171392
-0.179863
-0.167157
-0.137508
-0.0909187
-0.0273871
0.0234381
0.0530862
0.0700279
0.0700279
0.0615571
0.0446153
-0.0019745
-0.0951541
-0.150215
-0.196805
-0.226453
-0.256101
-0.281513
-0.302691
-0.302691
-0.277278
-0.239159
-0.184098
-0.124802
-0.0612706
-0.0189162
0.0107318
0.0276736
0.0276736
0.0149672
-0.0019745
-0.0231517
-0.0400934
-0.0655061
-0.0909187
-0.116331
-0.145979
-0.145979
-0.10786
-0.0697415
-0.0316226
-0.0146808
-0.0019745
0.00649637
0.0149672
0.0192027
0.0234381
0.0276736
0.031909
0.031909
0.0234381
0.0192027
0.0107318
0.00226094
-0.00620994
-0.0189162
-0.0316226
-0.035858
-0.0316226
-0.0189162
0.00649637
0.0488507
0.112382
0.158972
0.205562
0.23521
0.256387
0.252152
0.218268
0.180149
0.146266
0.125089
0.108147
0.0784988
0.0276736
-0.0273871
-0.0909187
-0.158686
-0.205276
-0.222217
-0.230688
-0.24763
-0.243394
-0.179863
-0.0527998
0.0954406
0.23521
0.311448
0.336861
0.307212
0.260623
0.209797
0.133559
0.031909
-0.0231517
-0.0527998
-0.0782124
-0.0866833
-0.0739769
-0.0485643
-0.0231517
0.0149672
0.0446153
0.125089
0.252152
0.434276
0.667225
0.963705
1.26442
1.46349
1.48043
1.38725
1.02724
0.472394
-0.145979
-0.68388
-0.950713
-0.980361
-0.874475
-0.679645
-0.476344
-0.319632
-0.243394
-0.222217
-0.213746
-0.20104
-0.188334
-0.175627
-0.162921
-0.150215
-0.129038
-0.0951541
-0.0697415
-0.0570352
-0.0400934
-0.0316226
-0.0316226
-0.0485643
-0.0697415
-0.0909187
-0.116331
-0.116331
-0.0782124
-0.0570352
-0.0400934
-0.0316226
-0.0189162
-0.0104454
-0.0019745
0.00226094
0.0107318
0.0192027
0.031909
0.0403799
0.0530862
0.0615571
0.0742634
0.0954406
0.120853
0.120853
0.0954406
0.0573216
-0.0019745
-0.0443289
-0.0739769
-0.0866833
-0.0739769
-0.0443289
-0.0189162
0.0149672
0.0403799
0.0615571
0.0784988
0.103911
0.125089
0.150501
0.175914
0.180149
0.163208
0.146266
0.129324
0.175914
0.226739
0.269093
0.269093
0.226739
0.197091
0.175914
0.154737
0.14203
0.133559
0.125089
0.112382
0.0954406
0.0954406
0.129324
0.180149
0.226739
0.247916
0.264858
0.256387
0.218268
0.192856
0.175914
0.158972
0.146266
0.133559
0.116618
0.099676
0.0869697
0.0700279
0.0615571
0.0488507
0.0361444
0.0276736
0.0192027
0.00649637
-0.0019745
-0.0146808
-0.0273871
-0.0316226
-0.0400934
-0.0485643
-0.0527998
-0.0612706
-0.0739769
-0.0909187
-0.103625
-0.10786
-0.10786
-0.103625
-0.0993896
-0.0951541
-0.0866833
-0.0739769
-0.0570352
-0.10786
-0.15445
-0.188334
-0.217982
-0.239159
-0.256101
-0.277278
-0.302691
-0.319632
-0.298455
-0.256101
-0.217982
-0.179863
-0.15445
-0.15445
-0.15445
-0.150215
-0.145979
-0.188334
-0.319632
-0.459402
-0.582229
-0.628819
-0.624584
-0.569523
-0.421283
-0.209511
-0.0697415
-0.0231517
-0.0231517
-0.035858
-0.0612706
-0.0782124
-0.0316226
0.0192027
0.0615571
0.0657925
0.0276736
-0.0316226
-0.103625
-0.162921
-0.20104
-0.20104
-0.162921
-0.10786
-0.0316226
0.0446153
0.0912051
0.108147
0.125089
0.137795
0.0954406
0.0361444
-0.0400934
-0.0909187
-0.120567
-0.145979
-0.162921
-0.179863
-0.196805
-0.209511
-0.226453
-0.239159
-0.251865
-0.260336
-0.273043
-0.281513
-0.315397
-0.306926
-0.209511
-0.133273
-0.0909187
-0.0612706
-0.0485643
-0.0400934
-0.0443289
-0.0570352
-0.0739769
-0.0909187
-0.0993896
-0.116331
-0.137508
-0.150215
-0.15445
-0.15445
-0.145979
-0.133273
-0.120567
-0.10786
-0.0951541
-0.0824478
-0.0612706
-0.0316226
-0.00620994
0.0446153
0.0954406
0.0742634
0.00649637
-0.0909187
-0.209511
-0.277278
-0.323868
-0.361987
-0.400106
-0.438225
-0.467873
-0.425518
-0.374693
-0.323868
-0.289984
-0.243394
-0.179863
-0.10786
-0.0443289
-0.0104454
0.00649637
0.0234381
0.0403799
0.0573216
0.0700279
0.0869697
0.112382
0.112382
0.0827342
0.0615571
0.0446153
0.031909
0.0192027
0.00649637
-0.0019745
-0.0146808
-0.0655061
-0.162921
-0.273043
-0.328103
-0.374693
-0.421283
-0.501756
-0.616113
-0.692351
-0.721999
-0.721999
-0.675409
-0.539875
-0.408576
-0.345045
-0.289984
-0.217982
-0.167157
-0.133273
-0.112096
-0.0993896
-0.0866833
-0.0655061
-0.0273871
0.0488507
0.180149
0.362273
0.56981
0.794288
1.01877
1.24324
1.47196
1.67526
1.76844
1.7515
1.5609
1.20936
0.726521
0.163208
-0.370458
-0.772824
-0.933771
-0.929535
-0.760118
-0.433989
-0.0739769
0.150501
0.226739
0.175914
0.0869697
0.0192027
-0.0104454
-0.0273871
-0.0485643
-0.0782124
-0.133273
-0.209511
-0.289984
-0.374693
-0.455166
-0.531404
-0.573759
-0.599171
-0.620348
-0.628819
-0.620348
-0.603407
-0.577994
-0.561052
-0.548346
-0.539875
-0.527169
-0.514462
-0.497521
-0.484814
-0.472108
-0.455166
-0.429754
-0.378928
-0.302691
-0.205276
-0.0909187
0.031909
0.112382
0.137795
0.154737
0.171678
0.175914
0.175914
0.167443
0.154737
0.137795
0.125089
0.108147
0.0827342
0.0615571
0.0488507
0.0403799
0.031909
0.0234381
0.0107318
0.0192027
0.0530862
0.0827342
0.108147
0.137795
0.158972
0.18862
0.2818
0.413098
0.485101
0.531691
0.561339
0.57828
0.57828
0.565574
0.540161
0.463924
0.336861
0.286035
0.269093
0.264858
0.256387
0.247916
0.23521
0.218268
0.205562
0.192856
0.180149
0.167443
0.150501
0.133559
0.120853
0.103911
0.0869697
0.0700279
0.0488507
0.031909
0.0107318
-0.00620994
-0.0231517
-0.0443289
-0.0612706
-0.0655061
-0.0570352
-0.0443289
-0.0316226
-0.0189162
-0.0655061
-0.150215
-0.230688
-0.302691
-0.383164
-0.446695
-0.48905
-0.510227
-0.518698
-0.527169
-0.54411
-0.522933
-0.412812
-0.361987
-0.34928
-0.345045
-0.340809
-0.336574
-0.332339
-0.328103
-0.315397
-0.298455
-0.277278
-0.256101
-0.222217
-0.167157
-0.167157
-0.213746
-0.281513
-0.353516
-0.467873
-0.573759
-0.743176
-0.921064
-1.00154
-1.03542
-1.06507
-1.07778
-1.07354
-1.04389
-0.963419
-0.844827
-0.743176
-0.709293
-0.743176
-0.798237
-0.844827
-0.874475
-0.853297
-0.760118
-0.671174
-0.577994
-0.501756
-0.446695
-0.374693
-0.285749
-0.196805
-0.116331
-0.0527998
-0.0146808
0.0234381
0.0530862
0.0657925
0.0488507
0.0107318
-0.0400934
-0.0866833
-0.103625
-0.116331
-0.0866833
-0.0655061
-0.0485643
-0.035858
-0.0273871
-0.0189162
-0.00620994
0.00649637
0.0234381
0.0361444
0.0192027
-0.0231517
-0.0655061
-0.124802
-0.167157
-0.205276
-0.243394
-0.260336
-0.277278
-0.298455
-0.298455
-0.24763
-0.116331
0.00649637
0.0530862
0.0700279
0.0573216
0.0234381
-0.0316226
-0.0739769
-0.0866833
-0.0951541
-0.0909187
-0.0485643
-0.0019745
0.0446153
0.0530862
0.0615571
0.0700279
0.0615571
0.0234381
-0.0316226
-0.0782124
-0.0993896
-0.112096
-0.0655061
0.0615571
0.201326
0.32839
0.413098
0.485101
0.527455
0.557103
0.574045
0.586751
0.599458
0.612164
0.616399
0.62487
0.620635
0.616399
0.612164
0.603693
0.599458
0.586751
0.56981
0.603693
0.658754
0.696873
0.658754
0.62487
0.607929
0.586751
0.565574
0.544397
0.52322
0.506278
0.472394
0.43004
0.425805
0.446982
0.468159
0.493572
0.497807
0.468159
0.442746
0.417334
0.400392
0.417334
0.463924
0.586751
0.811229
1.095
1.37031
1.52702
1.52278
1.34913
0.997589
0.57828
0.154737
-0.226453
-0.539875
-0.760118
-0.874475
-0.912594
-0.866004
-0.794001
-0.721999
-0.692351
-0.68388
-0.679645
-0.675409
-0.671174
-0.662703
-0.658467
-0.645761
-0.641526
-0.633055
-0.624584
-0.611878
-0.599171
-0.577994
-0.531404
-0.438225
-0.391635
-0.366222
-0.34928
-0.336574
-0.323868
-0.315397
-0.306926
-0.298455
-0.285749
-0.277278
-0.264572
-0.24763
-0.230688
-0.222217
-0.222217
-0.222217
-0.226453
-0.230688
-0.243394
-0.260336
-0.20104
-0.10786
-0.0146808
0.0573216
0.108147
0.158972
0.192856
0.222504
0.239445
0.218268
0.180149
0.129324
0.0742634
0.0361444
0.0107318
-0.0146808
-0.0231517
-0.00620994
0.0361444
0.0954406
0.184385
0.252152
0.294506
0.32839
0.353802
0.374979
0.400392
0.408863
0.387686
0.349567
0.315683
0.277564
0.239445
0.197091
0.120853
0.0573216
0.0403799
0.0276736
0.0149672
0.00649637
0.00226094
0.00226094
0.00649637
0.0149672
0.0192027
0.0234381
0.0276736
0.031909
0.0403799
0.0446153
0.0488507
0.0530862
0.0573216
0.0573216
0.0573216
0.0657925
0.0742634
0.00226094
-0.103625
-0.226453
-0.319632
-0.387399
-0.44246
-0.472108
-0.493285
-0.505992
-0.514462
-0.527169
-0.54411
-0.552581
-0.565288
-0.577994
-0.594936
-0.620348
-0.633055
-0.620348
-0.594936
-0.573759
-0.561052
-0.54411
-0.531404
-0.514462
-0.48905
-0.455166
-0.408576
-0.336574
-0.289984
-0.234924
-0.145979
-0.035858
0.0403799
0.0869697
0.116618
0.116618
0.0615571
0.0149672
-0.0316226
-0.0655061
-0.0951541
-0.137508
-0.205276
-0.328103
-0.480579
-0.561052
-0.607642
-0.63729
-0.671174
-0.705057
-0.751647
-0.794001
-0.760118
-0.658467
-0.48905
-0.391635
-0.311161
-0.24763
-0.184098
-0.0993896
-0.0019745
0.0657925
0.108147
0.129324
0.120853
0.103911
0.0954406
0.0869697
0.0784988
0.0700279
0.0657925
0.0657925
0.0700279
0.0742634
0.0784988
0.0784988
0.0869697
0.103911
0.103911
0.0488507
-0.0273871
-0.112096
-0.179863
-0.251865
-0.332339
-0.378928
-0.400106
-0.417047
-0.378928
-0.251865
-0.10786
-0.0273871
0.0276736
0.0657925
0.103911
0.14203
0.184385
0.230975
0.23521
0.201326
0.163208
0.125089
0.125089
0.154737
0.18862
0.218268
0.154737
0.0954406
0.0530862
0.0149672
-0.0146808
-0.0400934
-0.158686
-0.319632
-0.39587
-0.438225
-0.472108
-0.472108
-0.429754
-0.383164
-0.332339
-0.315397
-0.298455
-0.281513
-0.285749
-0.345045
-0.433989
-0.522933
-0.645761
-0.760118
-0.798237
-0.819414
-0.819414
-0.794001
-0.755882
-0.688115
-0.594936
-0.450931
-0.315397
-0.15445
0.00649637
0.103911
0.205562
0.311448
0.396157
0.455453
0.455453
0.396157
0.349567
0.307212
0.277564
0.264858
0.260623
0.256387
0.247916
0.23521
0.2818
0.315683
0.336861
0.353802
0.366509
0.370744
0.366509
0.353802
0.332625
0.302977
0.197091
0.0361444
-0.0400934
-0.0866833
-0.124802
-0.141744
-0.124802
-0.0782124
-0.0146808
0.0742634
0.125089
0.150501
0.171678
0.18862
0.205562
0.218268
0.239445
0.315683
0.527455
0.823936
1.17971
1.54396
1.82773
1.92091
1.8955
1.67526
1.27289
0.777346
0.277564
-0.116331
-0.315397
-0.336574
-0.234924
-0.035858
0.0742634
0.108147
0.0488507
-0.133273
-0.340809
-0.48905
-0.561052
-0.624584
-0.68388
-0.721999
-0.751647
-0.747411
-0.692351
-0.616113
-0.514462
-0.429754
-0.328103
-0.209511
-0.141744
-0.0993896
-0.116331
-0.205276
-0.289984
-0.361987
-0.412812
-0.455166
-0.484814
-0.505992
-0.522933
-0.527169
-0.518698
-0.493285
-0.463637
-0.429754
-0.374693
-0.323868
-0.273043
-0.226453
-0.179863
-0.116331
-0.035858
-0.00620994
0.00649637
0.0192027
0.0276736
0.031909
0.0403799
0.0488507
0.0573216
0.0657925
0.0742634
0.0869697
0.099676
0.112382
0.125089
0.154737
0.214033
0.273329
0.349567
0.446982
0.497807
0.527455
0.552868
0.56981
0.582516
0.582516
0.56981
0.552868
0.535926
0.514749
0.497807
0.47663
0.455453
0.43004
0.404628
0.379215
0.358038
0.336861
0.311448
0.286035
0.260623
0.23521
0.214033
0.192856
0.167443
0.14203
0.108147
0.0742634
0.0361444
0.00649637
-0.0104454
-0.0231517
-0.035858
-0.0485643
-0.0570352
-0.0655061
-0.0697415
-0.0697415
-0.0697415
-0.0739769
-0.0782124
-0.0824478
-0.0866833
-0.0909187
-0.0909187
-0.0951541
-0.0951541
-0.0951541
-0.0951541
-0.0909187
-0.0909187
-0.0866833
-0.0866833
-0.0866833
-0.0909187
-0.0993896
-0.10786
-0.112096
-0.112096
-0.0993896
-0.0824478
-0.0570352
-0.0189162
0.0403799
-0.0189162
-0.112096
-0.222217
-0.408576
-0.594936
-0.717763
-0.798237
-0.836356
-0.866004
-0.899887
-0.929535
-0.963419
-1.03966
-1.11166
-1.14131
-1.15825
-1.08625
-0.959183
-0.857533
-0.819414
-0.798237
-0.78553
-0.772824
-0.755882
-0.738941
-0.721999
-0.68388
-0.548346
-0.345045
-0.150215
-0.0655061
-0.0316226
-0.0231517
-0.0104454
0.00226094
0.0192027
0.0446153
0.0657925
0.0784988
0.0954406
0.112382
0.133559
0.146266
0.150501
0.146266
0.129324
0.103911
0.0700279
0.0361444
-0.0146808
-0.0951541
-0.158686
-0.217982
-0.281513
-0.366222
-0.429754
-0.484814
-0.522933
-0.527169
-0.497521
-0.446695
-0.387399
-0.315397
-0.264572
-0.24763
-0.234924
-0.226453
-0.217982
-0.209511
-0.205276
-0.20104
-0.196805
-0.192569
-0.179863
-0.171392
-0.162921
-0.15445
-0.150215
-0.145979
-0.133273
-0.120567
-0.103625
-0.0824478
-0.0570352
-0.00620994
0.0276736
0.0192027
0.0107318
0.00226094
-0.0104454
-0.0231517
-0.0273871
-0.0273871
-0.0104454
0.0107318
0.0361444
0.0784988
0.137795
0.171678
0.197091
0.197091
0.154737
0.108147
0.0488507
-0.0316226
-0.0697415
-0.0993896
-0.124802
-0.141744
-0.158686
-0.162921
-0.158686
-0.141744
-0.120567
-0.0951541
-0.0739769
-0.0570352
-0.0316226
0.00226094
0.0234381
0.0361444
0.0446153
0.0530862
0.0700279
0.0912051
0.0488507
0.00649637
-0.0231517
-0.0443289
-0.0485643
-0.0231517
0.0107318
0.0361444
0.0615571
0.0827342
0.0954406
0.0912051
0.0700279
0.0403799
0.0107318
-0.0146808
-0.0443289
-0.0782124
-0.10786
-0.137508
-0.162921
-0.192569
-0.226453
-0.251865
-0.256101
-0.239159
-0.205276
-0.167157
-0.112096
-0.0485643
-0.0146808
0.0107318
0.0276736
0.0446153
0.0573216
0.0657925
0.0657925
0.0615571
0.0573216
0.0488507
0.0403799
0.0234381
0.00649637
-0.0316226
-0.120567
-0.196805
-0.243394
-0.268807
-0.268807
-0.234924
-0.167157
0.0149672
0.307212
0.667225
1.01877
1.30678
1.49313
1.51008
1.41266
1.03994
0.52322
-0.0400934
-0.539875
-0.77706
-0.853297
-0.815179
-0.755882
-0.764353
-0.9253
-1.13707
-1.24296
-1.22178
-1.00577
-0.671174
-0.357751
-0.251865
-0.222217
-0.209511
-0.188334
-0.167157
-0.145979
-0.112096
-0.0485643
0.0615571
0.129324
0.171678
0.192856
0.18862
0.158972
0.116618
0.0700279
0.0107318
-0.0316226
-0.0866833
-0.137508
-0.175627
-0.20104
-0.222217
-0.239159
-0.234924
-0.209511
-0.171392
-0.137508
-0.10786
-0.0824478
-0.0527998
-0.0273871
-0.00620994
0.0107318
0.0276736
0.0403799
0.0530862
0.0657925
0.0784988
0.0912051
0.103911
0.120853
0.133559
0.150501
0.163208
0.180149
0.192856
0.205562
0.222504
0.239445
0.247916
0.252152
0.247916
0.230975
0.214033
0.197091
0.180149
0.167443
0.146266
0.120853
0.099676
0.0869697
0.0827342
0.0869697
0.0954406
0.108147
0.125089
0.14203
0.175914
0.180149
0.150501
0.0615571
-0.0739769
-0.230688
-0.378928
-0.463637
-0.624584
-0.768589
-0.849062
-0.933771
-1.00577
-1.05236
-1.08625
-1.08201
-1.02695
-0.874475
-0.599171
-0.311161
-0.205276
-0.171392
-0.222217
-0.39587
-0.611878
-0.73047
-0.772824
-0.772824
-0.717763
-0.573759
-0.353516
-0.145979
-0.0570352
-0.0231517
-0.0019745
0.0107318
0.0192027
0.0149672
0.00226094
-0.0146808
-0.035858
-0.0655061
-0.103625
-0.145979
-0.196805
-0.256101
-0.319632
-0.323868
-0.323868
-0.328103
-0.328103
-0.328103
-0.302691
-0.260336
-0.192569
-0.112096
-0.0909187
-0.0824478
-0.0739769
-0.0655061
-0.0570352
-0.0527998
-0.0443289
-0.0316226
-0.0273871
-0.0189162
-0.0104454
0.00226094
0.0149672
0.0361444
0.0869697
0.171678
0.226739
0.264858
0.222504
0.150501
0.0742634
0.0149672
-0.0273871
-0.0697415
-0.137508
-0.196805
-0.230688
-0.256101
-0.251865
-0.192569
-0.103625
-0.0104454
0.0615571
0.14203
0.239445
0.298742
0.32839
0.349567
0.294506
0.116618
-0.133273
-0.417047
-0.658467
-0.726234
-0.738941
-0.747411
-0.751647
-0.764353
-0.78553
-0.823649
-0.891416
-0.916829
-0.836356
-0.662703
-0.505992
-0.366222
-0.260336
-0.222217
-0.226453
-0.281513
-0.340809
-0.39587
-0.400106
-0.345045
-0.268807
-0.175627
-0.0866833
-0.0231517
0.00649637
0.031909
0.0234381
-0.0146808
-0.035858
-0.0527998
-0.0697415
-0.0909187
-0.112096
-0.137508
-0.175627
-0.222217
-0.24763
-0.264572
-0.281513
-0.29422
-0.298455
-0.285749
-0.260336
-0.230688
-0.209511
-0.192569
-0.171392
-0.15445
-0.137508
-0.124802
-0.10786
-0.0951541
-0.0697415
-0.0316226
0.00226094
0.0488507
0.108147
0.175914
0.243681
0.324154
0.379215
0.404628
0.425805
0.391921
0.332625
0.252152
0.154737
0.0827342
0.0488507
0.0276736
0.0149672
0.0192027
0.0488507
0.0869697
0.120853
0.158972
0.184385
0.18862
0.171678
0.14203
0.099676
0.031909
-0.0231517
-0.0824478
-0.167157
-0.205276
-0.213746
-0.222217
-0.226453
-0.213746
-0.188334
-0.167157
-0.15445
-0.137508
-0.120567
-0.10786
-0.0909187
-0.0655061
0.0276736
0.230975
0.531691
0.895938
1.27713
1.59902
1.73032
1.71761
1.52278
1.12889
0.675695
0.319919
0.171678
0.129324
0.0954406
0.0615571
0.0276736
-0.0019745
-0.0316226
-0.0570352
-0.0655061
-0.0655061
-0.0612706
-0.0570352
-0.0527998
-0.0485643
-0.0485643
-0.0485643
-0.0443289
-0.0273871
-0.00620994
0.0192027
0.0488507
0.0657925
0.0615571
0.0403799
-0.0146808
-0.10786
-0.205276
-0.298455
-0.408576
-0.484814
-0.514462
-0.514462
-0.484814
-0.438225
-0.39587
-0.383164
-0.374693
-0.370458
-0.361987
-0.353516
-0.34928
-0.340809
-0.328103
-0.306926
-0.264572
-0.213746
-0.167157
-0.133273
-0.10786
-0.10786
-0.137508
-0.175627
-0.213746
-0.239159
-0.256101
-0.230688
-0.162921
-0.0612706
0.0276736
0.0573216
0.0700279
0.0742634
0.0657925
0.0615571
0.0530862
0.0488507
0.0403799
0.0446153
0.0573216
0.0784988
0.120853
0.158972
0.175914
0.18862
0.192856
0.180149
0.146266
0.0912051
0.0361444
-0.0273871
-0.120567
-0.213746
-0.234924
-0.260336
-0.289984
-0.323868
-0.383164
-0.455166
-0.493285
-0.514462
-0.539875
-0.561052
-0.63729
-0.734705
-0.823649
-0.874475
-0.904123
-0.921064
-0.946477
-0.980361
-1.02271
-1.0693
-1.08625
-1.09472
-1.10742
-1.11166
-1.09895
-1.07778
-1.0566
-1.03966
-1.01424
-0.97189
-0.853297
-0.654232
-0.44246
-0.264572
-0.175627
-0.145979
-0.179863
-0.239159
-0.306926
-0.353516
-0.383164
-0.404341
-0.417047
-0.433989
-0.455166
-0.455166
-0.425518
-0.340809
-0.251865
-0.15445
-0.0697415
-0.0485643
-0.035858
-0.0273871
-0.0189162
-0.00620994
-0.0019745
0.0107318
0.031909
0.0742634
0.150501
0.247916
0.353802
0.391921
0.408863
0.421569
0.379215
0.332625
0.298742
0.260623
0.222504
0.18862
0.158972
0.133559
0.133559
0.14203
0.154737
0.167443
0.180149
0.18862
0.180149
0.150501
0.112382
0.0573216
0.00226094
-0.0485643
-0.0993896
-0.133273
-0.141744
-0.150215
-0.158686
-0.15445
-0.120567
-0.0697415
-0.0104454
0.0361444
0.0742634
0.099676
0.129324
0.171678
0.218268
0.273329
0.315683
0.336861
0.362273
0.391921
0.421569
0.451217
0.451217
0.434276
0.391921
0.302977
0.252152
0.209797
0.175914
0.137795
0.103911
0.0784988
0.0657925
0.0700279
0.0827342
0.0954406
0.112382
0.0657925
0.031909
0.00649637
-0.0104454
-0.0316226
-0.0400934
-0.0570352
-0.0866833
-0.129038
-0.158686
-0.150215
-0.0909187
-0.0527998
-0.035858
-0.0273871
-0.0189162
-0.0019745
0.0276736
0.120853
0.243681
0.302977
0.341096
0.370744
0.404628
0.446982
0.485101
0.506278
0.52322
0.502043
0.43004
0.32839
0.269093
0.201326
0.129324
0.0784988
0.0403799
0.0403799
0.0742634
0.116618
0.175914
0.286035
0.400392
0.43004
0.438511
0.446982
0.417334
0.362273
0.307212
0.222504
0.133559
0.099676
0.0869697
0.0954406
0.112382
0.125089
0.137795
0.146266
0.154737
0.154737
0.146266
0.133559
0.112382
0.0742634
0.0742634
0.146266
0.192856
0.214033
0.226739
0.230975
0.230975
0.218268
0.197091
0.163208
0.099676
0.0192027
-0.0400934
-0.0866833
-0.137508
-0.192569
-0.239159
-0.277278
-0.298455
-0.251865
-0.116331
0.125089
0.446982
0.832407
1.19665
1.33642
1.30678
0.993353
0.527455
0.0615571
-0.302691
-0.522933
-0.603407
-0.603407
-0.510227
-0.353516
-0.268807
-0.24763
-0.230688
-0.209511
-0.188334
-0.112096
-0.0146808
0.0192027
-0.0019745
-0.0655061
-0.192569
-0.311161
-0.378928
-0.433989
-0.472108
-0.497521
-0.522933
-0.54411
-0.522933
-0.501756
-0.480579
-0.480579
-0.48905
-0.505992
-0.48905
-0.417047
-0.374693
-0.353516
-0.345045
-0.332339
-0.311161
-0.289984
-0.260336
-0.226453
-0.222217
-0.230688
-0.251865
-0.234924
-0.171392
-0.10786
-0.0527998
-0.0189162
-0.0146808
-0.035858
-0.0612706
-0.0866833
-0.103625
-0.112096
-0.124802
-0.133273
-0.0993896
-0.0400934
0.0234381
0.103911
0.158972
0.184385
0.205562
0.163208
0.108147
0.0615571
0.0361444
0.00226094
-0.0527998
-0.133273
-0.192569
-0.230688
-0.251865
-0.277278
-0.306926
-0.34928
-0.387399
-0.366222
-0.29422
-0.133273
0.0488507
0.180149
0.226739
0.252152
0.269093
0.290271
0.290271
0.247916
0.129324
0.00226094
-0.120567
-0.251865
-0.336574
-0.361987
-0.361987
-0.332339
-0.311161
-0.289984
-0.273043
-0.243394
-0.209511
-0.171392
-0.124802
-0.120567
-0.15445
-0.243394
-0.378928
-0.429754
-0.476344
-0.539875
-0.611878
-0.726234
-0.836356
-0.870239
-0.891416
-0.904123
-0.912594
-0.921064
-0.9253
-0.9253
-0.933771
-0.942242
-0.946477
-0.946477
-0.933771
-0.908358
-0.827885
-0.709293
-0.569523
-0.446695
-0.336574
-0.209511
-0.0739769
-0.0019745
0.0446153
0.0700279
0.0954406
0.120853
0.146266
0.171678
0.192856
0.214033
0.239445
0.269093
0.298742
0.315683
0.336861
0.353802
0.366509
0.379215
0.379215
0.379215
0.366509
0.349567
0.32839
0.298742
0.243681
0.133559
0.0700279
0.0361444
0.0149672
-0.00620994
-0.0189162
-0.0273871
-0.035858
-0.0527998
-0.0782124
-0.0951541
-0.0951541
-0.0739769
-0.035858
0.0742634
0.201326
0.247916
0.239445
0.175914
0.129324
0.0954406
0.0657925
0.0446153
0.0361444
0.0234381
-0.035858
-0.162921
-0.205276
-0.217982
-0.226453
-0.222217
-0.184098
-0.137508
-0.0951541
-0.0612706
-0.0316226
0.00226094
0.0446153
0.108147
0.171678
0.218268
0.247916
0.197091
0.150501
0.120853
0.0869697
0.0573216
0.0234381
-0.0316226
-0.0909187
-0.116331
-0.137508
-0.116331
-0.0909187
-0.0782124
-0.0655061
-0.0443289
-0.0231517
0.00649637
0.0403799
0.0403799
-0.00620994
-0.0655061
-0.150215
-0.234924
-0.302691
-0.336574
-0.353516
-0.366222
-0.370458
-0.370458
-0.370458
-0.366222
-0.361987
-0.353516
-0.34928
-0.366222
-0.39587
-0.433989
-0.472108
-0.480579
-0.484814
-0.493285
-0.497521
-0.484814
-0.459402
-0.433989
-0.408576
-0.370458
-0.323868
-0.251865
-0.167157
-0.120567
-0.0866833
-0.0527998
-0.0231517
0.0276736
0.120853
0.180149
0.209797
0.23521
0.247916
0.260623
0.260623
0.260623
0.252152
0.247916
0.239445
0.23521
0.226739
0.222504
0.218268
0.209797
0.209797
0.209797
0.218268
0.226739
0.243681
0.269093
0.32839
0.370744
0.400392
0.421569
0.421569
0.400392
0.366509
0.32839
0.273329
0.23521
0.214033
0.18862
0.175914
0.175914
0.197091
0.222504
0.243681
0.256387
0.269093
0.2818
0.298742
0.315683
0.332625
0.353802
0.374979
0.396157
0.421569
0.451217
0.472394
0.489336
0.514749
0.565574
0.629106
0.71805
0.870526
1.07383
1.31101
1.56937
1.81926
2.03104
2.20892
2.27246
2.21739
2.05221
1.53972
0.870526
0.184385
-0.374693
-0.645761
-0.734705
-0.671174
-0.611878
-0.577994
-0.556817
-0.53564
-0.518698
-0.501756
-0.480579
-0.467873
-0.459402
-0.446695
-0.429754
-0.408576
-0.383164
-0.361987
-0.340809
-0.315397
-0.281513
-0.251865
-0.230688
-0.222217
-0.226453
-0.234924
-0.24763
-0.260336
-0.268807
-0.281513
-0.289984
-0.302691
-0.315397
-0.328103
-0.340809
-0.34928
-0.361987
-0.374693
-0.387399
-0.404341
-0.425518
-0.44246
-0.44246
-0.425518
-0.404341
-0.378928
-0.340809
-0.285749
-0.209511
-0.116331
-0.0612706
-0.0316226
-0.0189162
0.00226094
0.0276736
0.0530862
0.0869697
0.163208
0.243681
0.264858
0.2818
0.294506
0.302977
0.294506
0.273329
0.243681
0.201326
0.133559
0.103911
0.0869697
0.0700279
0.0573216
0.0446153
0.031909
0.0234381
0.0149672
-0.00620994
-0.0316226
0.0107318
0.0530862
0.0827342
0.108147
0.137795
0.163208
0.197091
0.23521
0.197091
0.0784988
-0.150215
-0.370458
-0.539875
-0.688115
-0.849062
-1.02271
-1.08201
-1.11589
-1.09895
-0.954948
-0.781295
-0.666938
-0.594936
-0.561052
-0.53564
-0.510227
-0.484814
-0.463637
-0.433989
-0.315397
-0.141744
0.0149672
0.120853
0.197091
0.243681
0.269093
0.269093
0.252152
0.226739
0.146266
-0.0400934
-0.209511
-0.268807
-0.285749
-0.264572
-0.217982
-0.175627
-0.129038
-0.0824478
-0.035858
-0.0189162
0.00226094
0.0234381
0.0403799
0.0530862
0.0615571
0.0573216
0.0488507
0.031909
0.0149672
-0.00620994
-0.0273871
-0.0655061
-0.0909187
-0.0697415
-0.0316226
0.0149672
0.0742634
0.129324
0.171678
0.209797
0.226739
0.205562
0.154737
0.0742634
-0.0231517
-0.0951541
-0.175627
-0.260336
-0.306926
-0.323868
-0.340809
-0.34928
-0.332339
-0.298455
-0.281513
-0.264572
-0.251865
-0.243394
-0.226453
-0.213746
-0.192569
-0.175627
-0.158686
-0.141744
-0.120567
-0.0909187
-0.0400934
-0.0146808
-0.0146808
-0.0189162
-0.0231517
-0.0231517
-0.0231517
-0.0231517
-0.035858
-0.0612706
-0.0866833
-0.120567
-0.150215
-0.175627
-0.256101
-0.391635
-0.472108
-0.539875
-0.586465
-0.620348
-0.645761
-0.666938
-0.675409
-0.662703
-0.624584
-0.522933
-0.370458
-0.239159
-0.196805
-0.171392
-0.15445
-0.137508
-0.10786
-0.0655061
-0.0316226
-0.0104454
-0.035858
-0.0697415
-0.0993896
-0.0909187
-0.0316226
0.0234381
0.0784988
0.125089
0.163208
0.222504
0.307212
0.379215
0.421569
0.38345
0.319919
0.239445
0.175914
0.125089
0.0912051
0.0657925
0.0403799
0.0446153
0.0954406
0.226739
0.324154
0.358038
0.358038
0.315683
0.269093
0.218268
0.184385
0.0954406
-0.0273871
-0.0866833
-0.129038
-0.158686
-0.15445
-0.120567
-0.0824478
-0.035858
0.0107318
0.0742634
0.171678
0.286035
0.358038
0.396157
0.421569
0.379215
0.315683
0.226739
0.133559
0.0361444
-0.0655061
-0.141744
-0.175627
-0.20104
-0.213746
-0.213746
-0.192569
-0.162921
-0.129038
-0.0824478
-0.035858
-0.00620994
0.0192027
0.0403799
0.0530862
0.0573216
0.0657925
0.0827342
0.099676
0.0573216
-0.0104454
-0.0909187
-0.184098
-0.264572
-0.319632
-0.357751
-0.353516
-0.29422
-0.133273
0.150501
0.52322
0.91288
1.25595
1.36184
1.31525
0.95947
0.391921
-0.230688
-0.781295
-1.0693
-1.09895
-0.967654
-0.688115
-0.472108
-0.311161
-0.217982
-0.141744
-0.0866833
-0.0697415
-0.0485643
-0.0316226
-0.0655061
-0.0993896
-0.129038
-0.141744
-0.124802
-0.0824478
-0.0316226
0.0192027
0.0530862
0.0657925
0.0700279
0.0784988
0.0869697
0.0954406
0.103911
0.108147
0.112382
0.112382
0.116618
0.116618
0.112382
0.108147
0.103911
0.0954406
0.0869697
0.0827342
0.0784988
0.0700279
0.0615571
0.0488507
0.031909
0.00226094
-0.0231517
-0.0273871
-0.0146808
0.0107318
0.0488507
0.108147
0.14203
0.163208
0.180149
0.184385
0.175914
0.158972
0.137795
0.0954406
0.0403799
0.00226094
-0.0231517
0.0276736
0.108147
0.175914
0.205562
0.218268
0.230975
0.230975
0.230975
0.226739
0.222504
0.214033
0.209797
0.205562
0.205562
0.205562
0.205562
0.201326
0.197091
0.192856
0.184385
0.180149
0.171678
0.163208
0.154737
0.146266
0.14203
0.133559
0.120853
0.0784988
-0.0146808
-0.0993896
-0.158686
-0.179863
-0.188334
-0.20104
-0.213746
-0.222217
-0.226453
-0.230688
-0.230688
-0.226453
-0.226453
-0.217982
-0.209511
-0.196805
-0.179863
-0.162921
-0.150215
-0.133273
-0.103625
-0.0782124
-0.0782124
-0.103625
-0.137508
-0.196805
-0.281513
-0.323868
-0.34928
-0.366222
-0.374693
-0.374693
-0.361987
-0.336574
-0.306926
-0.260336
-0.196805
-0.141744
-0.0739769
0.00649637
0.0742634
0.125089
0.154737
0.180149
0.205562
0.205562
0.154737
0.0149672
-0.167157
-0.323868
-0.378928
-0.340809
-0.226453
-0.10786
-0.0697415
-0.137508
-0.256101
-0.323868
-0.345045
-0.357751
-0.302691
-0.230688
-0.171392
-0.137508
-0.112096
-0.0909187
-0.0824478
-0.10786
-0.150215
-0.188334
-0.230688
-0.268807
-0.298455
-0.323868
-0.34928
-0.366222
-0.361987
-0.323868
-0.277278
-0.234924
-0.196805
-0.158686
-0.129038
-0.103625
-0.0824478
-0.0527998
-0.0189162
0.00226094
-0.0231517
-0.0655061
-0.116331
-0.167157
-0.213746
-0.256101
-0.302691
-0.353516
-0.378928
-0.404341
-0.425518
-0.357751
-0.289984
-0.243394
-0.20104
-0.167157
-0.137508
-0.10786
-0.0782124
-0.0527998
-0.035858
-0.0231517
-0.0104454
0.00226094
0.0149672
0.0192027
0.0192027
0.00226094
-0.0273871
-0.0612706
-0.124802
-0.217982
-0.336574
-0.497521
-0.68388
-0.861768
-0.97189
-1.09048
-1.16248
-1.1879
-1.20907
-1.20484
-1.15401
-1.01848
-0.861768
-0.717763
-0.666938
-0.654232
-0.645761
-0.63729
-0.624584
-0.607642
-0.586465
-0.552581
-0.493285
-0.383164
-0.256101
-0.124802
0.00226094
0.0530862
0.0869697
0.108147
0.0700279
0.0234381
-0.0189162
-0.0316226
-0.0443289
-0.0527998
-0.0612706
-0.0443289
-0.0146808
0.031909
0.099676
0.133559
0.146266
0.154737
0.158972
0.167443
0.171678
0.180149
0.184385
0.192856
0.201326
0.205562
0.209797
0.214033
0.222504
0.23521
0.247916
0.324154
0.451217
0.612164
0.790052
0.976412
1.22207
1.52278
1.82773
1.98021
1.9675
1.73879
1.25171
0.633341
-0.0231517
-0.561052
-0.781295
-0.77706
-0.539875
-0.234924
-0.0866833
-0.0316226
-0.0316226
-0.0443289
-0.0570352
-0.0739769
-0.0782124
-0.0612706
-0.0146808
0.120853
0.273329
0.345331
0.370744
0.362273
0.319919
0.273329
0.222504
0.18862
0.146266
0.099676
0.0615571
0.0657925
0.133559
0.184385
0.205562
0.222504
0.23521
0.243681
0.243681
0.23521
0.218268
0.205562
0.192856
0.184385
0.171678
0.158972
0.146266
0.133559
0.125089
0.112382
0.099676
0.0657925
0.0107318
-0.0316226
-0.0909187
-0.196805
-0.277278
-0.306926
-0.306926
-0.268807
-0.167157
-0.0612706
0.0234381
0.0869697
0.154737
0.230975
0.324154
0.396157
0.455453
0.506278
0.582516
0.684166
0.811229
0.946764
1.03147
1.06536
1.06536
1.02724
0.917115
0.730756
0.468159
0.184385
-0.0316226
-0.112096
-0.112096
-0.0273871
0.146266
0.2818
0.324154
0.302977
0.239445
0.120853
0.0615571
0.0149672
-0.0104454
0.0107318
0.0784988
0.214033
0.336861
0.442746
0.502043
0.52322
0.52322
0.480865
0.374979
0.252152
0.171678
0.146266
0.125089
0.103911
0.0869697
0.0615571
0.031909
0.0276736
0.0488507
0.0700279
0.0954406
0.0954406
0.0742634
0.0446153
0.0192027
0.0446153
0.0784988
0.103911
0.0573216
-0.0019745
-0.0485643
-0.0527998
-0.0443289
-0.035858
-0.0316226
-0.0231517
-0.0146808
0.00226094
0.0488507
0.125089
0.154737
0.154737
0.125089
0.0403799
-0.0570352
-0.184098
-0.319632
-0.459402
-0.594936
-0.675409
-0.705057
-0.717763
-0.709293
-0.692351
-0.63729
-0.53564
-0.459402
-0.433989
-0.48905
-0.54411
-0.586465
-0.611878
-0.620348
-0.628819
-0.645761
-0.658467
-0.633055
-0.548346
-0.412812
-0.273043
-0.133273
-0.0273871
0.0615571
0.171678
0.277564
0.341096
0.387686
0.425805
0.47663
0.518984
0.552868
0.56981
0.552868
0.514749
0.455453
0.387686
0.298742
0.218268
0.184385
0.167443
0.125089
0.0276736
-0.0866833
-0.205276
-0.24763
-0.24763
-0.222217
-0.184098
-0.137508
-0.0612706
0.0742634
0.23521
0.404628
0.552868
0.67146
0.71805
0.751933
0.747698
0.658754
0.52322
0.353802
0.205562
0.112382
0.0742634
0.0742634
0.0954406
0.163208
0.277564
0.332625
0.362273
0.38345
0.391921
0.391921
0.379215
0.358038
0.332625
0.298742
0.269093
0.239445
0.205562
0.171678
0.129324
0.0700279
0.0149672
-0.035858
-0.0697415
-0.0824478
-0.0951541
-0.10786
-0.124802
-0.137508
-0.158686
-0.251865
-0.378928
-0.514462
-0.628819
-0.68388
-0.721999
-0.764353
-0.794001
-0.815179
-0.789766
-0.768589
-0.747411
-0.738941
-0.743176
-0.760118
-0.781295
-0.798237
-0.751647
-0.692351
-0.63729
-0.607642
-0.577994
-0.518698
-0.387399
-0.260336
-0.15445
-0.0527998
0.0446153
0.103911
0.205562
0.315683
0.387686
0.413098
0.38345
0.353802
0.336861
0.324154
0.315683
0.311448
0.311448
0.311448
0.311448
0.307212
0.302977
0.307212
0.32839
0.349567
0.370744
0.396157
0.43004
0.493572
0.540161
0.561339
0.552868
0.446982
0.358038
0.32839
0.311448
0.302977
0.302977
0.311448
0.332625
0.358038
0.400392
0.463924
0.552868
0.641812
0.785817
1.03147
1.38725
1.80232
2.16657
2.33175
2.31481
2.05221
1.5482
0.921351
0.341096
-0.0866833
-0.268807
-0.289984
-0.205276
-0.103625
-0.0485643
0.0276736
0.129324
0.277564
0.438511
0.506278
0.531691
0.531691
0.502043
0.451217
0.391921
0.349567
0.315683
0.286035
0.247916
0.197091
0.14203
0.0784988
0.0192027
-0.0189162
-0.0400934
-0.0739769
-0.112096
-0.137508
-0.158686
-0.158686
-0.133273
-0.10786
-0.0824478
-0.0570352
-0.0316226
-0.0104454
0.00226094
0.0149672
0.0276736
0.0446153
0.0573216
0.0700279
0.0912051
0.133559
0.192856
0.218268
0.239445
0.243681
0.226739
0.192856
0.137795
0.0657925
-0.0104454
-0.0485643
-0.0612706
-0.0739769
-0.0443289
0.0446153
0.137795
0.23521
0.336861
0.455453
0.514749
0.548632
0.574045
0.586751
0.574045
0.540161
0.489336
0.417334
0.349567
0.2818
0.167443
0.0488507
-0.0739769
-0.196805
-0.268807
-0.328103
-0.370458
-0.387399
-0.404341
-0.417047
-0.39587
-0.332339
-0.243394
-0.213746
-0.196805
-0.192569
-0.196805
-0.217982
-0.243394
-0.289984
-0.361987
-0.433989
-0.476344
-0.493285
-0.505992
-0.472108
-0.429754
-0.387399
-0.34928
-0.243394
-0.116331
-0.0019745
0.0700279
0.120853
0.158972
0.184385
0.201326
0.230975
0.260623
0.277564
0.290271
0.273329
0.260623
0.256387
0.252152
0.247916
0.239445
0.226739
0.209797
0.18862
0.150501
0.0869697
-0.00620994
-0.129038
-0.289984
-0.446695
-0.594936
-0.726234
-0.768589
-0.78553
-0.798237
-0.760118
-0.649996
-0.539875
-0.429754
-0.370458
-0.345045
-0.336574
-0.328103
-0.323868
-0.315397
-0.306926
-0.298455
-0.29422
-0.281513
-0.268807
-0.24763
-0.167157
-0.0527998
0.0530862
0.103911
0.129324
0.146266
0.154737
0.163208
0.163208
0.154737
0.137795
0.125089
0.112382
0.103911
0.0912051
0.0827342
0.0742634
0.0742634
0.0742634
0.0784988
0.0827342
0.0912051
0.099676
0.112382
0.14203
0.197091
0.222504
0.23521
0.243681
0.252152
0.256387
0.256387
0.247916
0.23521
0.218268
0.197091
0.171678
0.133559
0.103911
0.0827342
0.0573216
0.031909
0.0192027
0.0149672
0.0107318
0.00649637
-0.0019745
-0.00620994
-0.00620994
-0.00620994
-0.0019745
0.00226094
0.00649637
0.00649637
0.0107318
0.0107318
0.0192027
0.0276736
0.0488507
0.0700279
0.125089
0.137795
0.0742634
-0.0612706
-0.217982
-0.273043
-0.29422
-0.289984
-0.24763
-0.20104
-0.15445
-0.10786
-0.0019745
0.184385
0.307212
0.349567
0.353802
0.32839
0.252152
0.146266
0.031909
-0.0485643
-0.0655061
-0.0782124
-0.0866833
-0.0951541
-0.103625
-0.112096
-0.116331
-0.124802
-0.129038
-0.141744
-0.20104
-0.285749
-0.374693
-0.467873
-0.565288
-0.675409
-0.78553
-0.882945
-0.938006
-0.97189
-0.993067
-1.00154
-0.997302
-0.980361
-0.942242
-0.798237
-0.649996
-0.527169
-0.429754
-0.366222
-0.24763
-0.129038
-0.035858
0.0234381
0.0700279
0.0954406
0.120853
0.14203
0.171678
0.222504
0.277564
0.315683
0.366509
0.434276
0.47663
0.497807
0.506278
0.514749
0.518984
0.510513
0.493572
0.472394
0.434276
0.366509
0.307212
0.264858
0.23521
0.192856
0.14203
0.099676
0.0700279
0.0700279
0.099676
0.184385
0.273329
0.298742
0.315683
0.332625
0.345331
0.362273
0.425805
0.557103
0.76464
1.06112
1.42113
1.76844
1.95056
1.94633
1.7515
1.36607
0.857819
0.332625
-0.0824478
-0.400106
-0.611878
-0.671174
-0.658467
-0.510227
-0.289984
-0.133273
-0.0824478
-0.124802
-0.179863
-0.222217
-0.192569
-0.112096
0.0573216
0.222504
0.290271
0.315683
0.315683
0.277564
0.239445
0.197091
0.167443
0.150501
0.14203
0.133559
0.125089
0.120853
0.116618
0.112382
0.112382
0.116618
0.120853
0.125089
0.133559
0.14203
0.154737
0.171678
0.201326
0.230975
0.256387
0.2818
0.290271
0.298742
0.311448
0.324154
0.324154
0.294506
0.264858
0.243681
0.222504
0.209797
0.192856
0.137795
0.0403799
-0.0739769
-0.188334
-0.268807
-0.328103
-0.370458
-0.374693
-0.34928
-0.315397
-0.264572
-0.209511
-0.158686
-0.124802
-0.103625
-0.0866833
-0.0739769
-0.0570352
-0.0443289
-0.0273871
-0.0104454
0.0149672
0.0869697
0.192856
0.307212
0.379215
0.408863
0.417334
0.404628
0.374979
0.341096
0.298742
0.260623
0.209797
0.154737
0.120853
0.099676
0.14203
0.18862
0.226739
0.226739
0.192856
0.14203
0.0573216
-0.00620994
-0.0400934
-0.0697415
-0.0951541
-0.120567
-0.145979
-0.179863
-0.209511
-0.234924
-0.315397
-0.433989
-0.582229
-0.688115
-0.726234
-0.721999
-0.666938
-0.586465
-0.48905
-0.404341
-0.311161
-0.243394
-0.196805
-0.179863
-0.192569
-0.222217
-0.243394
-0.268807
-0.281513
-0.264572
-0.230688
-0.171392
-0.0909187
-0.0104454
0.0742634
0.146266
0.197091
0.226739
0.247916
0.269093
0.2818
0.2818
0.256387
0.218268
0.14203
0.0700279
0.0446153
0.0276736
0.00226094
-0.0273871
-0.0527998
-0.0824478
-0.0866833
-0.0782124
-0.0697415
-0.0570352
-0.0782124
-0.112096
-0.133273
-0.0824478
0.00226094
0.0403799
0.0403799
0.0446153
0.0446153
0.0488507
0.0403799
0.0192027
-0.00620994
-0.0443289
-0.0993896
-0.112096
-0.116331
-0.124802
-0.129038
-0.133273
-0.137508
-0.137508
-0.145979
-0.150215
-0.158686
-0.167157
-0.171392
-0.179863
-0.192569
-0.222217
-0.29422
-0.417047
-0.53564
-0.662703
-0.781295
-0.819414
-0.844827
-0.870239
-0.887181
-0.912594
-0.942242
-0.967654
-0.993067
-1.01848
-1.04389
-1.0566
-1.03966
-1.00154
-0.946477
-0.87871
-0.768589
-0.624584
-0.472108
-0.332339
-0.209511
-0.129038
-0.0316226
0.031909
0.0827342
0.0742634
-0.0739769
-0.302691
-0.539875
-0.658467
-0.696586
-0.658467
-0.586465
-0.531404
-0.505992
-0.48905
-0.493285
-0.531404
-0.569523
-0.611878
-0.658467
-0.721999
-0.798237
-0.853297
-0.891416
-0.895652
-0.870239
-0.802472
-0.68388
-0.616113
-0.505992
-0.378928
-0.209511
-0.0527998
0.0615571
0.129324
0.175914
0.214033
0.256387
0.324154
0.374979
0.391921
0.408863
0.404628
0.366509
0.324154
0.2818
0.260623
0.247916
0.230975
0.218268
0.239445
0.2818
0.32839
0.379215
0.400392
0.404628
0.413098
0.421569
0.374979
0.336861
0.315683
0.294506
0.2818
0.277564
0.2818
0.2818
0.286035
0.286035
0.290271
0.286035
0.243681
0.180149
0.14203
0.133559
0.129324
0.133559
0.167443
0.260623
0.391921
0.590987
0.836642
1.13312
1.46772
1.79385
2.07339
2.22587
2.21739
2.02256
1.6202
1.14583
0.688402
0.324154
0.108147
0.0403799
0.0742634
0.171678
0.345331
0.489336
0.561339
0.599458
0.629106
0.646047
0.654518
0.646047
0.62487
0.603693
0.586751
0.574045
0.565574
0.552868
0.540161
0.527455
0.510513
0.502043
0.489336
0.47663
0.459688
0.434276
0.341096
0.184385
0.0784988
-0.0104454
-0.0655061
-0.0909187
-0.0993896
-0.10786
-0.120567
-0.129038
-0.137508
-0.137508
-0.133273
-0.129038
-0.129038
-0.129038
-0.129038
-0.129038
-0.129038
-0.129038
-0.124802
-0.124802
-0.124802
-0.129038
-0.133273
-0.133273
-0.133273
-0.133273
-0.133273
-0.133273
-0.129038
-0.120567
-0.112096
-0.103625
-0.0951541
-0.0824478
-0.0655061
-0.0273871
0.0615571
0.133559
0.214033
0.264858
0.294506
0.315683
0.324154
0.324154
0.311448
0.290271
0.214033
0.0361444
-0.0570352
-0.137508
-0.217982
-0.277278
-0.315397
-0.332339
-0.340809
-0.357751
-0.345045
-0.239159
-0.0909187
0.0192027
0.0615571
0.099676
0.137795
0.175914
0.18862
0.197091
0.209797
0.218268
0.205562
0.180149
0.163208
0.154737
0.14203
0.133559
0.125089
0.112382
0.099676
0.0912051
0.0784988
0.0615571
0.0234381
-0.0400934
-0.103625
-0.158686
-0.192569
-0.213746
-0.222217
-0.213746
-0.196805
-0.184098
-0.162921
-0.15445
-0.158686
-0.179863
-0.213746
-0.273043
-0.336574
-0.378928
-0.404341
-0.421283
-0.366222
-0.302691
-0.251865
-0.251865
-0.29422
-0.336574
-0.378928
-0.387399
-0.374693
-0.366222
-0.357751
-0.34928
-0.328103
-0.302691
-0.256101
-0.213746
-0.192569
-0.205276
-0.311161
-0.391635
-0.421283
-0.370458
-0.319632
-0.277278
-0.239159
-0.213746
-0.167157
-0.103625
-0.0570352
-0.0273871
-0.0316226
-0.0655061
-0.10786
-0.150215
-0.150215
-0.116331
-0.0909187
-0.0739769
-0.0570352
-0.035858
-0.0231517
-0.00620994
0.00649637
0.0234381
0.0403799
0.0530862
0.0573216
0.0530862
0.0403799
0.0234381
-0.0019745
-0.0485643
-0.124802
-0.162921
-0.192569
-0.205276
-0.192569
-0.162921
-0.10786
-0.0527998
-0.0316226
-0.0146808
-0.00620994
-0.0231517
-0.0570352
-0.10786
-0.20104
-0.315397
-0.378928
-0.408576
-0.39587
-0.323868
-0.256101
-0.205276
-0.175627
-0.137508
-0.0951541
-0.0655061
-0.0443289
-0.0316226
-0.0146808
-0.00620994
-0.00620994
-0.00620994
-0.0146808
-0.0231517
-0.0316226
-0.0570352
-0.103625
-0.150215
-0.184098
-0.184098
-0.145979
-0.0909187
-0.0273871
0.0149672
0.0361444
0.0573216
0.0784988
0.103911
0.154737
0.167443
0.0869697
-0.00620994
-0.0316226
-0.0485643
-0.0570352
-0.0570352
-0.0527998
-0.0400934
-0.0273871
0.0276736
0.150501
0.273329
0.319919
0.345331
0.366509
0.32839
0.269093
0.184385
0.0784988
-0.0189162
-0.0782124
-0.124802
-0.150215
-0.171392
-0.184098
-0.196805
-0.209511
-0.226453
-0.24763
-0.273043
-0.298455
-0.332339
-0.34928
-0.332339
-0.29422
-0.234924
-0.150215
-0.0782124
-0.00620994
0.0700279
0.146266
0.290271
0.506278
0.798523
1.15006
1.52278
1.79385
1.83621
1.78538
1.45502
0.993353
0.518984
0.116618
-0.133273
-0.24763
-0.289984
-0.29422
-0.273043
-0.209511
-0.035858
0.171678
0.2818
0.315683
0.286035
0.192856
0.0657925
-0.0655061
-0.120567
-0.158686
-0.179863
-0.141744
-0.0739769
-0.0189162
0.0149672
0.0361444
0.0530862
0.0615571
0.0700279
0.0700279
0.0700279
0.0742634
0.0742634
0.0784988
0.0869697
0.0912051
0.0954406
0.099676
0.103911
0.112382
0.116618
0.125089
0.133559
0.14203
0.167443
0.184385
0.167443
0.133559
0.099676
0.0615571
0.031909
0.00649637
-0.0146808
-0.035858
-0.0485643
-0.035858
-0.0019745
0.103911
0.222504
0.260623
0.277564
0.286035
0.294506
0.298742
0.302977
0.298742
0.2818
0.260623
0.230975
0.197091
0.23521
0.298742
0.332625
0.341096
0.311448
0.163208
0.0276736
-0.0146808
-0.0400934
-0.0612706
-0.0782124
-0.103625
-0.129038
-0.124802
-0.0782124
-0.00620994
0.0530862
0.0700279
0.0742634
0.0869697
0.112382
0.146266
0.205562
0.290271
0.345331
0.379215
0.396157
0.387686
0.349567
0.243681
0.0657925
-0.162921
-0.446695
-0.73047
-0.959183
-1.03542
-1.00154
-0.904123
-0.628819
-0.345045
-0.209511
-0.175627
-0.141744
-0.103625
-0.0485643
0.125089
0.273329
0.32839
0.324154
0.247916
0.192856
0.158972
0.125089
0.099676
0.0784988
0.0657925
0.0488507
0.0276736
0.00649637
-0.0189162
-0.0400934
-0.0570352
-0.0697415
-0.0739769
-0.0866833
-0.112096
-0.179863
-0.239159
-0.277278
-0.298455
-0.281513
-0.243394
-0.196805
-0.141744
-0.0993896
-0.0485643
0.0107318
0.0573216
0.0912051
0.0912051
0.0530862
0.0192027
-0.0146808
-0.0316226
-0.0146808
0.0234381
0.0488507
0.0742634
0.0954406
0.103911
0.0912051
0.0657925
0.0276736
-0.0316226
-0.124802
-0.217982
-0.285749
-0.323868
-0.34928
-0.378928
-0.421283
-0.472108
-0.527169
-0.582229
-0.709293
-0.844827
-0.984596
-1.0566
-1.09895
-1.12437
-1.13707
-1.14131
-1.1286
-1.10319
-1.02271
-0.891416
-0.768589
-0.73047
-0.705057
-0.68388
-0.662703
-0.594936
-0.463637
-0.353516
-0.281513
-0.205276
-0.141744
-0.0400934
0.0700279
0.209797
0.290271
0.319919
0.319919
0.290271
0.264858
0.23521
0.214033
0.18862
0.171678
0.158972
0.150501
0.137795
0.129324
0.120853
0.112382
0.103911
0.0827342
0.0573216
0.099676
0.146266
0.175914
0.209797
0.239445
0.2818
0.324154
0.332625
0.345331
0.336861
0.269093
0.171678
0.0869697
0.0657925
0.0488507
0.0361444
0.0276736
0.0276736
0.0276736
0.031909
0.031909
0.0361444
0.0361444
0.0446153
0.0530862
0.031909
0.00226094
-0.0231517
0.00226094
0.0403799
0.0700279
0.0361444
0.00226094
-0.0273871
-0.0231517
0.0234381
0.0615571
0.0912051
0.120853
0.14203
0.158972
0.222504
0.332625
0.404628
0.43004
0.387686
0.311448
0.239445
0.192856
0.154737
0.112382
0.0488507
0.0107318
-0.0019745
-0.00620994
0.0149672
0.031909
0.0488507
0.0573216
0.0657925
0.0657925
0.0530862
0.0361444
0.0149672
-0.0104454
-0.0400934
-0.0485643
-0.0316226
-0.0104454
0.0107318
0.0107318
-0.0316226
-0.0697415
-0.112096
-0.150215
-0.179863
-0.213746
-0.251865
-0.24763
-0.196805
-0.0570352
0.158972
0.463924
0.862055
1.32795
1.80232
2.09457
2.10727
1.8955
1.40419
0.785817
0.209797
-0.213746
-0.357751
-0.404341
-0.429754
-0.438225
-0.433989
-0.417047
-0.387399
-0.281513
-0.158686
-0.120567
-0.103625
-0.120567
-0.171392
-0.20104
-0.20104
-0.167157
-0.145979
-0.124802
-0.10786
-0.0951541
-0.0951541
-0.0993896
-0.10786
-0.120567
-0.158686
-0.273043
-0.361987
-0.391635
-0.34928
-0.306926
-0.268807
-0.268807
-0.315397
-0.433989
-0.505992
-0.531404
-0.497521
-0.463637
-0.446695
-0.421283
-0.39587
-0.361987
-0.239159
-0.0824478
0.0573216
0.171678
0.222504
0.23521
0.243681
0.252152
0.252152
0.252152
0.243681
0.230975
0.218268
0.201326
0.175914
0.158972
0.158972
0.171678
0.197091
0.226739
0.269093
0.302977
0.332625
0.353802
0.370744
0.370744
0.358038
0.332625
0.294506
0.230975
0.180149
0.146266
0.146266
0.184385
0.290271
0.43004
0.502043
0.527455
0.540161
0.535926
0.506278
0.459688
0.387686
0.286035
0.137795
0.0107318
-0.0316226
-0.0655061
-0.10786
-0.158686
-0.188334
-0.209511
-0.222217
-0.20104
-0.15445
-0.112096
-0.0612706
-0.0189162
0.0276736
0.0530862
0.0742634
0.0912051
0.103911
0.116618
0.125089
0.129324
0.129324
0.133559
0.137795
0.14203
0.150501
0.158972
0.167443
0.175914
0.18862
0.205562
0.222504
0.247916
0.2818
0.324154
0.38345
0.446982
0.404628
0.345331
0.264858
0.197091
0.14203
0.0784988
-0.0019745
-0.0909187
-0.141744
-0.167157
-0.188334
-0.20104
-0.209511
-0.20104
-0.192569
-0.175627
-0.158686
-0.145979
-0.124802
-0.10786
-0.0993896
-0.103625
-0.124802
-0.158686
-0.213746
-0.306926
-0.400106
-0.480579
-0.539875
-0.577994
-0.586465
-0.561052
-0.493285
-0.357751
-0.184098
-0.0146808
0.112382
0.154737
0.116618
0.00649637
-0.141744
-0.20104
-0.20104
-0.145979
-0.0824478
-0.0273871
-0.0104454
0.00226094
0.0107318
0.00226094
-0.0485643
-0.0782124
-0.0993896
-0.116331
-0.129038
-0.133273
-0.133273
-0.124802
-0.116331
-0.0993896
-0.0824478
-0.0655061
-0.0443289
-0.0316226
-0.0189162
-0.0231517
-0.0316226
-0.0527998
-0.0909187
-0.158686
-0.222217
-0.268807
-0.302691
-0.319632
-0.336574
-0.345045
-0.353516
-0.357751
-0.361987
-0.366222
-0.366222
-0.357751
-0.34928
-0.336574
-0.319632
-0.298455
-0.273043
-0.217982
-0.184098
-0.158686
-0.145979
-0.137508
-0.133273
-0.124802
-0.120567
-0.10786
-0.0951541
-0.0824478
-0.0697415
-0.0612706
-0.0485643
-0.0316226
-0.0189162
-0.00620994
-0.0019745
-0.00620994
-0.0146808
-0.0273871
-0.035858
-0.0612706
-0.120567
-0.188334
-0.260336
-0.302691
-0.332339
-0.34928
-0.353516
-0.336574
-0.311161
-0.268807
-0.184098
-0.0782124
0.00649637
0.0657925
0.103911
0.120853
0.103911
0.0615571
0.0149672
-0.0400934
-0.112096
-0.15445
-0.179863
-0.20104
-0.222217
-0.239159
-0.251865
-0.260336
-0.264572
-0.273043
-0.281513
-0.302691
-0.366222
-0.450931
-0.501756
-0.522933
-0.54411
-0.561052
-0.556817
-0.514462
-0.404341
-0.273043
-0.116331
-0.0146808
0.0657925
0.120853
0.146266
0.129324
0.0827342
0.0149672
-0.0655061
-0.116331
-0.150215
-0.162921
-0.158686
-0.145979
-0.141744
-0.137508
-0.133273
-0.129038
-0.129038
-0.137508
-0.141744
-0.150215
-0.179863
-0.175627
-0.0655061
0.120853
0.362273
0.633341
0.917115
1.19665
1.4169
1.4889
1.39572
1.11195
0.527455
-0.129038
-0.696586
-1.01001
-1.11166
-1.08201
-0.988831
-0.827885
-0.662703
-0.505992
-0.400106
-0.273043
-0.150215
-0.0782124
-0.0316226
-0.00620994
-0.0019745
-0.0273871
-0.0570352
-0.0993896
-0.158686
-0.205276
-0.234924
-0.256101
-0.273043
-0.285749
-0.285749
-0.281513
-0.264572
-0.243394
-0.205276
-0.116331
-0.0655061
-0.0400934
-0.0273871
-0.0104454
-0.0019745
0.0107318
0.0192027
0.0276736
0.031909
0.0361444
0.0403799
0.0488507
0.0573216
0.0700279
0.0827342
0.0912051
0.0784988
0.0615571
0.0446153
0.0276736
0.00649637
-0.0104454
-0.0189162
-0.0104454
0.00649637
0.031909
0.0700279
0.150501
0.201326
0.226739
0.247916
0.264858
0.273329
0.273329
0.260623
0.23521
0.205562
0.154737
0.0912051
0.0573216
0.0361444
0.0869697
0.129324
0.154737
0.180149
0.214033
0.252152
0.286035
0.311448
0.336861
0.362273
0.387686
0.400392
0.400392
0.387686
0.370744
0.349567
0.32839
0.290271
0.222504
0.163208
0.125089
0.103911
0.0869697
0.0784988
0.0657925
0.0488507
0.031909
0.0149672
-0.0019745
-0.0189162
-0.0316226
-0.0527998
-0.0697415
-0.0739769
-0.0697415
-0.0612706
-0.0443289
-0.0273871
-0.00620994
0.0234381
0.0361444
0.0192027
-0.0189162
-0.0570352
-0.103625
-0.103625
-0.0655061
-0.0443289
-0.0316226
-0.0189162
-0.0104454
-0.0019745
0.00226094
-0.0019745
-0.00620994
-0.0146808
-0.0273871
-0.0316226
-0.0400934
-0.0527998
-0.0697415
-0.0993896
-0.129038
-0.150215
-0.171392
-0.184098
-0.196805
-0.209511
-0.226453
-0.24763
-0.268807
-0.289984
-0.315397
-0.336574
-0.361987
-0.387399
-0.404341
-0.412812
-0.404341
-0.383164
-0.357751
-0.328103
-0.273043
-0.175627
-0.112096
-0.0782124
-0.0400934
-0.0104454
0.0234381
0.0912051
0.158972
0.18862
0.209797
0.201326
0.137795
0.0784988
0.0234381
-0.0273871
-0.0739769
-0.120567
-0.167157
-0.192569
-0.171392
-0.124802
-0.0485643
0.0488507
0.150501
0.243681
0.298742
0.336861
0.353802
0.332625
0.2818
0.209797
0.0912051
-0.0019745
-0.0697415
-0.120567
-0.167157
-0.213746
-0.273043
-0.412812
-0.5907
-0.764353
-0.827885
-0.827885
-0.755882
-0.573759
-0.370458
-0.171392
-0.0273871
0.0149672
0.0403799
0.0615571
0.0742634
0.0869697
0.112382
0.14203
0.137795
0.0912051
0.0530862
0.0149672
-0.0019745
0.0192027
0.0573216
0.0827342
0.099676
0.116618
0.129324
0.137795
0.14203
0.150501
0.150501
0.154737
0.150501
0.146266
0.129324
0.108147
0.0784988
0.0446153
-0.0909187
-0.260336
-0.366222
-0.48905
-0.599171
-0.679645
-0.734705
-0.77706
-0.810943
-0.840591
-0.857533
-0.836356
-0.789766
-0.747411
-0.696586
-0.654232
-0.616113
-0.569523
-0.510227
-0.450931
-0.39587
-0.353516
-0.311161
-0.268807
-0.20104
-0.0909187
-0.0316226
-0.0019745
0.0149672
0.031909
0.0446153
0.0615571
0.0742634
0.0869697
0.099676
0.116618
0.158972
0.247916
0.413098
0.616399
0.862055
1.14583
1.43807
1.64138
1.70914
1.65408
1.47196
1.08653
0.586751
0.108147
-0.175627
-0.264572
-0.289984
-0.298455
-0.306926
-0.319632
-0.336574
-0.370458
-0.412812
-0.455166
-0.493285
-0.539875
-0.586465
-0.611878
-0.611878
-0.586465
-0.552581
-0.510227
-0.455166
-0.374693
-0.306926
-0.234924
-0.162921
-0.0824478
0.0276736
0.133559
0.167443
0.18862
0.205562
0.222504
0.230975
0.243681
0.252152
0.256387
0.264858
0.269093
0.269093
0.273329
0.273329
0.273329
0.277564
0.2818
0.286035
0.294506
0.302977
0.311448
0.315683
0.324154
0.32839
0.32839
0.324154
0.319919
0.315683
0.307212
0.302977
0.302977
0.302977
0.302977
0.302977
0.307212
0.302977
0.294506
0.290271
0.290271
0.315683
0.345331
0.362273
0.379215
0.396157
0.413098
0.421569
0.421569
0.408863
0.387686
0.362273
0.332625
0.307212
0.277564
0.247916
0.222504
0.201326
0.184385
0.167443
0.154737
0.14203
0.129324
0.116618
0.103911
0.0954406
0.0827342
0.0700279
0.0615571
0.0446153
0.0276736
0.0149672
0.031909
0.0573216
0.0742634
0.0912051
0.103911
0.116618
0.112382
0.099676
0.0784988
0.0446153
-0.0104454
-0.116331
-0.205276
-0.256101
-0.289984
-0.311161
-0.328103
-0.345045
-0.366222
-0.374693
-0.353516
-0.302691
-0.264572
-0.226453
-0.192569
-0.179863
-0.171392
-0.167157
-0.158686
-0.150215
-0.15445
-0.175627
-0.196805
-0.222217
-0.217982
-0.179863
-0.15445
-0.129038
-0.112096
-0.103625
-0.0993896
-0.10786
-0.120567
-0.133273
-0.145979
-0.162921
-0.179863
-0.205276
-0.234924
-0.285749
-0.433989
-0.641526
-0.819414
-0.874475
-0.844827
-0.743176
-0.539875
-0.306926
-0.0739769
0.0192027
0.0488507
0.00649637
-0.0570352
-0.145979
-0.226453
-0.285749
-0.345045
-0.391635
-0.429754
-0.455166
-0.459402
-0.450931
-0.438225
-0.429754
-0.421283
-0.417047
-0.408576
-0.400106
-0.39587
-0.387399
-0.378928
-0.370458
-0.361987
-0.34928
-0.340809
-0.328103
-0.306926
-0.289984
-0.281513
-0.281513
-0.289984
-0.298455
-0.306926
-0.323868
-0.332339
-0.315397
-0.281513
-0.230688
-0.141744
-0.035858
0.0488507
0.112382
0.150501
0.108147
0.0403799
-0.0400934
-0.10786
-0.162921
-0.209511
-0.24763
-0.281513
-0.29422
-0.277278
-0.243394
-0.209511
-0.171392
-0.167157
-0.192569
-0.222217
-0.24763
-0.24763
-0.217982
-0.196805
-0.179863
-0.171392
-0.162921
-0.162921
-0.171392
-0.192569
-0.226453
-0.268807
-0.353516
-0.480579
-0.548346
-0.5907
-0.616113
-0.616113
-0.594936
-0.556817
-0.510227
-0.450931
-0.412812
-0.323868
-0.188334
-0.0824478
-0.0189162
0.031909
0.0615571
0.0827342
0.0912051
0.0954406
0.0954406
0.099676
0.103911
0.0700279
0.0361444
0.00649637
-0.0231517
-0.0485643
-0.0993896
-0.175627
-0.251865
-0.298455
-0.319632
-0.340809
-0.340809
-0.311161
-0.273043
-0.217982
-0.15445
-0.0782124
-0.0316226
-0.00620994
0.0149672
0.0276736
0.0403799
0.0488507
0.0573216
0.0742634
0.0954406
0.0615571
0.00226094
-0.0400934
-0.0655061
-0.0824478
-0.0527998
0.0361444
0.175914
0.358038
0.544397
0.713814
0.8197
0.823936
0.734992
0.480865
0.108147
-0.319632
-0.743176
-1.07354
-1.23872
-1.24719
-1.13284
-0.870239
-0.569523
-0.306926
-0.116331
-0.0104454
0.0488507
0.137795
0.247916
0.370744
0.417334
0.417334
0.391921
0.366509
0.345331
0.32839
0.307212
0.286035
0.209797
0.0573216
-0.0951541
-0.230688
-0.345045
-0.400106
-0.433989
-0.455166
-0.450931
-0.412812
-0.370458
-0.328103
-0.29422
-0.260336
-0.209511
-0.15445
-0.0951541
-0.0655061
-0.0527998
-0.0443289
-0.035858
-0.0316226
-0.0273871
-0.0189162
-0.0104454
-0.0019745
0.00649637
0.0192027
0.031909
0.0700279
0.137795
0.201326
0.269093
0.311448
0.32839
0.341096
0.353802
0.370744
0.38345
0.391921
0.408863
0.43004
0.485101
0.552868
0.62487
0.696873
0.768875
0.845113
0.891703
0.900174
0.91288
0.917115
0.921351
0.921351
0.917115
0.917115
0.91288
0.91288
0.908645
0.908645
0.904409
0.891703
0.878996
0.857819
0.8197
0.743463
0.654518
0.57828
0.506278
0.446982
0.387686
0.319919
0.239445
0.158972
0.0149672
-0.116331
-0.273043
-0.450931
-0.633055
-0.806708
-0.959183
-1.1286
-1.30649
-1.47591
-1.58603
-1.62415
-1.64109
-1.63685
-1.61991
-1.59026
-1.48861
-1.23872
-0.904123
-0.577994
-0.289984
-0.0824478
-0.0231517
-0.0019745
0.0149672
-0.0443289
-0.103625
-0.150215
-0.179863
-0.179863
-0.171392
-0.15445
-0.141744
-0.133273
-0.129038
-0.124802
-0.116331
-0.0993896
-0.0782124
-0.0570352
-0.0273871
0.0234381
0.0276736
-0.0104454
-0.0612706
-0.133273
-0.205276
-0.285749
-0.374693
-0.421283
-0.44246
-0.455166
-0.400106
-0.34928
-0.319632
-0.298455
-0.273043
-0.24763
-0.222217
-0.205276
-0.184098
-0.158686
-0.141744
-0.141744
-0.150215
-0.171392
-0.196805
-0.230688
-0.277278
-0.285749
-0.298455
-0.311161
-0.306926
-0.273043
-0.243394
-0.217982
-0.196805
-0.196805
-0.213746
-0.239159
-0.268807
-0.302691
-0.298455
-0.251865
-0.179863
-0.0951541
-0.0316226
0.0107318
0.0446153
0.0784988
0.108147
0.108147
0.0700279
-0.0273871
-0.162921
-0.268807
-0.302691
-0.323868
-0.336574
-0.340809
-0.340809
-0.336574
-0.332339
-0.323868
-0.311161
-0.289984
-0.289984
-0.319632
-0.340809
-0.366222
-0.374693
-0.361987
-0.328103
-0.277278
-0.196805
-0.0993896
-0.0443289
-0.0273871
-0.0104454
-0.0443289
-0.103625
-0.179863
-0.264572
-0.340809
-0.387399
-0.425518
-0.429754
-0.404341
-0.340809
-0.230688
-0.116331
-0.0485643
-0.00620994
0.0234381
0.031909
0.0149672
-0.0231517
-0.0612706
-0.10786
-0.141744
-0.188334
-0.24763
-0.289984
-0.319632
-0.336574
-0.336574
-0.315397
-0.281513
-0.24763
-0.205276
-0.179863
-0.167157
-0.145979
-0.129038
-0.162921
-0.209511
-0.24763
-0.285749
-0.383164
-0.484814
-0.53564
-0.569523
-0.5907
-0.599171
-0.582229
-0.548346
-0.493285
-0.417047
-0.340809
-0.268807
-0.196805
-0.137508
-0.0485643
0.0615571
0.0869697
0.0912051
0.0954406
0.0954406
0.0954406
0.0827342
0.0700279
0.0446153
-0.0104454
-0.0782124
-0.15445
-0.226453
-0.298455
-0.370458
-0.421283
-0.450931
-0.472108
-0.429754
-0.383164
-0.340809
-0.302691
-0.256101
-0.209511
-0.179863
-0.162921
-0.20104
-0.319632
-0.476344
-0.649996
-0.819414
-0.963419
-1.01424
-1.03542
-1.05236
-1.01848
-0.912594
-0.734705
-0.497521
-0.192569
0.171678
0.565574
0.938293
1.23054
1.40419
1.4169
1.28136
0.900174
0.341096
-0.277278
-0.810943
-1.14131
-1.21755
-1.2006
-1.04389
-0.87871
-0.827885
-0.870239
-0.984596
-1.19213
-1.30225
-1.30649
-1.23025
-1.10319
-0.97189
-0.904123
-0.857533
-0.823649
-0.789766
-0.738941
-0.666938
-0.586465
-0.497521
-0.391635
-0.332339
-0.311161
-0.29422
-0.29422
-0.306926
-0.319632
-0.328103
-0.332339
-0.323868
-0.302691
-0.273043
-0.222217
-0.158686
-0.0951541
-0.0443289
-0.0189162
0.00226094
0.0149672
0.0276736
0.0530862
0.099676
0.158972
0.205562
0.239445
0.260623
0.222504
0.180149
0.150501
0.129324
0.129324
0.14203
0.167443
0.205562
0.273329
0.311448
0.332625
0.349567
0.362273
0.374979
0.387686
0.396157
0.413098
0.43004
0.455453
0.489336
0.535926
0.595222
0.620635
0.633341
0.646047
0.650283
0.654518
0.650283
0.646047
0.633341
0.612164
0.557103
0.455453
0.43004
0.404628
0.379215
0.353802
0.332625
0.307212
0.286035
0.286035
0.298742
0.311448
0.324154
0.332625
0.345331
0.349567
0.349567
0.345331
0.336861
0.319919
0.294506
0.252152
0.171678
0.0361444
-0.0824478
-0.120567
-0.145979
-0.158686
-0.162921
-0.158686
-0.141744
-0.124802
-0.0951541
-0.0485643
0.0192027
0.0488507
0.0657925
0.0784988
0.0869697
0.0954406
0.0954406
0.0954406
0.0912051
0.0827342
0.0700279
0.0530862
0.0361444
0.0107318
-0.0316226
-0.0485643
-0.0527998
-0.0570352
-0.0655061
-0.0739769
-0.0739769
-0.0697415
-0.0485643
-0.0273871
0.00649637
0.0573216
0.112382
0.154737
0.192856
0.218268
0.222504
0.209797
0.180149
0.133559
0.0573216
