0.823936
1.0103
1.20089
1.40419
1.50584
1.55243
1.57784
1.59055
1.60326
1.6202
1.64138
1.66255
1.68797
1.71761
1.76844
1.84468
1.92515
1.9675
1.99715
2.02256
2.04798
2.06068
2.06068
2.04374
2.00562
1.96327
1.92091
1.88703
1.84468
1.79385
1.7515
1.71338
1.68373
1.65408
1.62443
1.59479
1.5609
1.52702
1.4889
1.45502
1.42113
1.39572
1.37454
1.34913
1.32372
1.29407
1.26866
1.24748
1.2263
1.20513
1.18818
1.17548
1.16701
1.1543
1.13736
1.11618
1.095
1.07806
1.06536
1.06112
1.04841
1.023
0.950999
0.806994
0.734992
0.701108
0.675695
0.658754
0.641812
0.62487
0.612164
0.603693
0.590987
0.582516
0.56981
0.557103
0.548632
0.527455
0.506278
0.493572
0.480865
0.468159
0.459688
0.459688
0.463924
0.463924
0.451217
0.438511
0.421569
0.413098
0.408863
0.404628
0.400392
0.391921
0.379215
0.358038
0.332625
0.286035
0.256387
0.264858
0.2818
0.307212
0.332625
0.302977
0.277564
0.256387
0.239445
0.226739
0.218268
0.214033
0.214033
0.209797
0.197091
0.18862
0.184385
0.192856
0.230975
0.2818
0.332625
0.374979
0.425805
0.47663
0.506278
0.510513
0.514749
0.518984
0.52322
0.527455
0.531691
0.527455
0.493572
0.455453
0.421569
0.396157
0.366509
0.336861
0.298742
0.252152
0.209797
0.167443
0.137795
0.129324
0.14203
0.167443
0.201326
0.23521
0.277564
0.332625
0.400392
0.442746
0.480865
0.510513
0.531691
0.544397
0.544397
0.544397
0.544397
0.544397
0.544397
0.544397
0.544397
0.540161
0.531691
0.506278
0.47663
0.43004
0.349567
0.302977
0.269093
0.252152
0.247916
0.269093
0.307212
0.366509
0.451217
0.57828
0.790052
1.03994
1.14583
1.20513
1.24324
1.18818
1.01453
0.739227
0.400392
0.0403799
-0.298455
-0.633055
-0.938006
-1.02695
-1.0693
-1.03542
-0.899887
-0.755882
-0.616113
-0.514462
-0.438225
-0.361987
-0.285749
-0.213746
-0.171392
-0.145979
-0.124802
-0.10786
-0.0951541
-0.0909187
-0.0909187
-0.0951541
-0.103625
-0.116331
-0.141744
-0.167157
-0.192569
-0.217982
-0.24763
-0.285749
-0.319632
-0.353516
-0.387399
-0.421283
-0.455166
-0.480579
-0.493285
-0.480579
-0.455166
-0.425518
-0.383164
-0.319632
-0.230688
-0.129038
-0.0443289
-0.0400934
-0.035858
-0.0316226
-0.0316226
-0.0316226
-0.0485643
-0.0782124
-0.10786
-0.129038
-0.145979
-0.162921
-0.184098
-0.20104
-0.209511
-0.209511
-0.20104
-0.188334
-0.175627
-0.158686
-0.129038
-0.0993896
-0.0485643
0.031909
0.099676
0.150501
0.18862
0.218268
0.222504
0.197091
0.150501
0.099676
0.0234381
-0.0655061
-0.129038
-0.171392
-0.213746
-0.256101
-0.298455
-0.332339
-0.34928
-0.366222
-0.383164
-0.400106
-0.417047
-0.433989
-0.44246
-0.446695
-0.450931
-0.455166
-0.455166
-0.455166
-0.446695
-0.438225
-0.425518
-0.417047
-0.408576
-0.391635
-0.374693
-0.361987
-0.332339
-0.268807
-0.205276
-0.0400934
0.201326
0.472394
0.650283
0.709579
0.662989
0.527455
0.273329
-0.0443289
-0.383164
-0.679645
-0.938006
-1.13707
-1.20484
-1.16672
-1.03966
-0.857533
-0.738941
-0.675409
-0.641526
-0.616113
-0.603407
-0.594936
-0.582229
-0.569523
-0.556817
-0.548346
-0.54411
-0.53564
-0.531404
-0.522933
-0.518698
-0.510227
-0.501756
-0.493285
-0.484814
-0.480579
-0.480579
-0.480579
-0.48905
-0.501756
-0.510227
-0.510227
-0.514462
-0.514462
-0.518698
-0.518698
-0.522933
-0.522933
-0.522933
-0.531404
-0.53564
-0.54411
-0.552581
-0.552581
-0.556817
-0.556817
-0.548346
-0.531404
-0.505992
-0.480579
-0.450931
-0.417047
-0.383164
-0.34928
-0.315397
-0.281513
-0.24763
-0.217982
-0.188334
-0.158686
-0.133273
-0.10786
-0.0909187
-0.0782124
-0.0612706
-0.0443289
-0.0316226
-0.0104454
0.00649637
0.0192027
0.0361444
0.0488507
0.0657925
0.0784988
0.0954406
0.112382
0.129324
0.146266
0.158972
0.154737
0.137795
0.103911
0.0573216
-0.0316226
-0.167157
-0.24763
-0.298455
-0.332339
-0.332339
-0.29422
-0.243394
-0.188334
-0.116331
-0.0782124
-0.0570352
-0.0443289
-0.0316226
-0.0231517
-0.0189162
-0.0146808
-0.0146808
-0.0146808
-0.0189162
-0.0273871
-0.0400934
-0.0570352
-0.0739769
-0.0909187
-0.10786
-0.133273
-0.15445
-0.171392
-0.175627
-0.162921
-0.137508
-0.112096
-0.0824478
-0.0400934
-0.0231517
-0.0485643
-0.0951541
-0.120567
-0.137508
-0.158686
-0.175627
-0.188334
-0.192569
-0.184098
-0.171392
-0.150215
-0.133273
-0.116331
-0.0993896
-0.0697415
-0.0400934
-0.0231517
-0.0189162
-0.0316226
-0.0612706
-0.0909187
-0.120567
-0.167157
-0.196805
-0.179863
-0.150215
-0.133273
-0.116331
-0.103625
-0.0909187
-0.0866833
-0.0866833
-0.0909187
-0.0993896
-0.10786
-0.116331
-0.120567
-0.124802
-0.133273
-0.141744
-0.150215
-0.158686
-0.171392
-0.184098
-0.192569
-0.196805
-0.20104
-0.20104
-0.192569
-0.188334
-0.184098
-0.184098
-0.179863
-0.175627
-0.162921
-0.150215
-0.133273
-0.116331
-0.0697415
0.031909
0.214033
0.421569
0.675695
1.00182
1.36184
1.65408
1.68797
1.57361
1.07806
0.379215
-0.345045
-0.912594
-1.12437
-1.2006
-1.22602
-1.20484
-1.1286
-0.908358
-0.641526
-0.332339
-0.0231517
0.180149
0.247916
0.192856
0.120853
0.0657925
0.0700279
0.14203
0.18862
0.222504
0.256387
0.2818
0.2818
0.264858
0.239445
0.214033
0.197091
0.180149
0.167443
0.154737
0.14203
0.137795
0.146266
0.158972
0.184385
0.214033
0.264858
0.332625
0.353802
0.366509
0.370744
0.374979
0.374979
0.370744
0.370744
0.366509
0.353802
0.336861
0.319919
0.298742
0.286035
0.269093
0.252152
0.23521
0.226739
0.226739
0.239445
0.264858
0.298742
0.336861
0.370744
0.404628
0.438511
0.472394
0.497807
0.518984
0.535926
0.557103
0.56981
0.582516
0.590987
0.603693
0.612164
0.620635
0.620635
0.620635
0.612164
0.603693
0.590987
0.57828
0.565574
0.557103
0.548632
0.540161
0.531691
0.518984
0.497807
0.480865
0.459688
0.446982
0.438511
0.425805
0.408863
0.366509
0.290271
0.260623
0.252152
0.239445
0.222504
0.226739
0.226739
0.226739
0.226739
0.230975
0.23521
0.23521
0.243681
0.256387
0.277564
0.302977
0.332625
0.370744
0.455453
0.599458
0.798523
0.989118
1.23054
1.53972
1.89127
2.16657
2.19622
2.06068
1.51855
0.675695
-0.226453
-0.980361
-1.42085
-1.48438
-1.36579
-1.02695
-0.717763
-0.493285
-0.417047
-0.383164
-0.357751
-0.332339
-0.340809
-0.417047
-0.459402
-0.484814
-0.505992
-0.522933
-0.54411
-0.561052
-0.586465
-0.607642
-0.628819
-0.645761
-0.666938
-0.696586
-0.738941
-0.810943
-0.83212
-0.836356
-0.840591
-0.849062
-0.857533
-0.866004
-0.861768
-0.836356
-0.802472
-0.764353
-0.738941
-0.717763
-0.688115
-0.662703
-0.63729
-0.628819
-0.628819
-0.641526
-0.658467
-0.675409
-0.696586
-0.721999
-0.768589
-0.772824
-0.743176
-0.717763
-0.692351
-0.666938
-0.628819
-0.586465
-0.505992
-0.408576
-0.366222
-0.336574
-0.319632
-0.306926
-0.311161
-0.332339
-0.361987
-0.383164
-0.39587
-0.408576
-0.425518
-0.44246
-0.455166
-0.467873
-0.476344
-0.480579
-0.480579
-0.472108
-0.467873
-0.455166
-0.44246
-0.421283
-0.39587
-0.366222
-0.302691
-0.234924
-0.137508
-0.0655061
-0.0316226
-0.00620994
-0.0527998
-0.0951541
-0.116331
-0.133273
-0.15445
-0.179863
-0.209511
-0.239159
-0.273043
-0.315397
-0.353516
-0.374693
-0.39587
-0.421283
-0.446695
-0.463637
-0.476344
-0.48905
-0.505992
-0.497521
-0.438225
-0.383164
-0.328103
-0.289984
-0.260336
-0.239159
-0.217982
-0.20104
-0.188334
-0.184098
-0.188334
-0.20104
-0.209511
-0.222217
-0.239159
-0.24763
-0.217982
-0.167157
-0.120567
-0.0782124
-0.0443289
-0.0316226
-0.0189162
-0.00620994
0.0107318
0.0276736
0.0361444
0.0276736
0.0107318
-0.0104454
-0.0316226
-0.0655061
-0.0824478
-0.0612706
-0.0104454
0.154737
0.421569
0.743463
1.05265
1.19665
1.17548
0.917115
0.396157
-0.175627
-0.633055
-0.921064
-1.01848
-0.988831
-0.887181
-0.743176
-0.671174
-0.565288
-0.383164
-0.251865
-0.217982
-0.196805
-0.184098
-0.158686
-0.137508
-0.112096
-0.0909187
-0.0655061
-0.0443289
-0.0273871
-0.00620994
0.0107318
0.0192027
0.031909
0.0530862
0.0869697
0.137795
0.192856
0.23521
0.269093
0.315683
0.366509
0.421569
0.489336
0.540161
0.582516
0.62487
0.650283
0.667225
0.675695
0.688402
0.696873
0.709579
0.726521
0.743463
0.756169
0.773111
0.794288
0.815465
0.836642
0.853584
0.870526
0.904409
0.942528
0.887467
0.836642
0.794288
0.781581
0.794288
0.828171
0.862055
0.895938
0.934057
0.984882
1.06536
1.1543
1.19242
1.21783
1.23477
1.24748
1.25171
1.24748
1.23054
1.20936
1.17971
1.12465
1.03994
0.967941
0.883232
0.773111
0.679931
0.616399
0.582516
0.552868
0.527455
0.489336
0.408863
0.294506
0.205562
0.146266
0.099676
0.0573216
0.0192027
-0.0189162
-0.0655061
-0.0993896
-0.120567
-0.137508
-0.15445
-0.167157
-0.184098
-0.256101
-0.374693
-0.48905
-0.522933
-0.484814
-0.421283
-0.378928
-0.370458
-0.361987
-0.357751
-0.340809
-0.315397
-0.29422
-0.268807
-0.273043
-0.340809
-0.438225
-0.527169
-0.561052
-0.582229
-0.599171
-0.616113
-0.633055
-0.654232
-0.68388
-0.726234
-0.734705
-0.721999
-0.692351
-0.709293
-0.802472
-0.857533
-0.895652
-0.891416
-0.78553
-0.620348
-0.404341
-0.120567
0.205562
0.455453
0.489336
0.391921
0.0869697
-0.328103
-0.768589
-1.07778
-1.26837
-1.41661
-1.50555
-1.53944
-1.48014
-1.29802
-1.12437
-0.980361
-0.921064
-0.874475
-0.83212
-0.794001
-0.794001
-0.819414
-0.844827
-0.874475
-0.874475
-0.844827
-0.819414
-0.802472
-0.78553
-0.781295
-0.794001
-0.823649
-0.866004
-0.933771
-1.02695
-1.0693
-1.09048
-1.10742
-1.12013
-1.1286
-1.1286
-1.12013
-1.10319
-1.08625
-1.06083
-1.03542
-0.993067
-0.946477
-0.899887
-0.840591
-0.77706
-0.738941
-0.705057
-0.675409
-0.662703
-0.675409
-0.709293
-0.764353
-0.849062
-0.916829
-0.959183
-0.959183
-0.916829
-0.849062
-0.781295
-0.73047
-0.666938
-0.5907
-0.514462
-0.459402
-0.429754
-0.408576
-0.391635
-0.378928
-0.370458
-0.366222
-0.361987
-0.353516
-0.345045
-0.340809
-0.345045
-0.361987
-0.387399
-0.425518
-0.48905
-0.582229
-0.624584
-0.654232
-0.679645
-0.692351
-0.692351
-0.671174
-0.63729
-0.594936
-0.514462
-0.438225
-0.412812
-0.400106
-0.383164
-0.340809
-0.29422
-0.260336
-0.226453
-0.192569
-0.162921
-0.150215
-0.141744
-0.141744
-0.145979
-0.145979
-0.141744
-0.133273
-0.120567
-0.0824478
-0.0400934
-0.0104454
0.0192027
0.0488507
0.0784988
0.103911
0.120853
0.14203
0.197091
0.260623
0.286035
0.302977
0.315683
0.315683
0.298742
0.269093
0.230975
0.163208
0.0700279
0.0149672
-0.0231517
-0.0189162
0.0403799
0.099676
0.158972
0.197091
0.226739
0.260623
0.298742
0.345331
0.413098
0.506278
0.67146
0.942528
1.30678
1.70491
2.01409
2.04798
1.90821
1.32372
0.557103
-0.20104
-0.857533
-1.19637
-1.31072
-1.2599
-1.11166
-0.895652
-0.607642
-0.298455
-0.0273871
0.192856
0.332625
0.379215
0.421569
0.463924
0.485101
0.506278
0.52322
0.535926
0.544397
0.544397
0.540161
0.527455
0.506278
0.485101
0.463924
0.442746
0.417334
0.391921
0.366509
0.349567
0.336861
0.32839
0.324154
0.315683
0.307212
0.298742
0.290271
0.286035
0.290271
0.302977
0.32839
0.362273
0.396157
0.43004
0.485101
0.527455
0.552868
0.56981
0.574045
0.582516
0.586751
0.595222
0.607929
0.616399
0.629106
0.633341
0.637577
0.641812
0.650283
0.662989
0.675695
0.684166
0.692637
0.705344
0.71805
0.730756
0.739227
0.743463
0.734992
0.71805
0.696873
0.667225
0.616399
0.514749
0.442746
0.391921
0.345331
0.298742
0.269093
0.252152
0.23521
0.218268
0.201326
0.180149
0.167443
0.150501
0.14203
0.129324
0.116618
0.108147
0.0954406
0.0912051
0.0954406
0.103911
0.112382
0.125089
0.137795
0.146266
0.150501
0.163208
0.180149
0.192856
0.201326
0.205562
0.201326
0.18862
0.171678
0.150501
0.129324
0.099676
0.0488507
0.0403799
0.0700279
0.103911
0.137795
0.137795
0.0954406
0.0657925
0.0403799
0.0192027
-0.00620994
-0.0316226
-0.0570352
-0.0909187
-0.137508
-0.162921
-0.145979
-0.0951541
-0.0273871
0.0912051
0.311448
0.599458
0.946764
1.24748
1.38301
1.36607
1.14159
0.62487
-0.0824478
-0.866004
-1.53097
-1.89098
-1.9291
-1.78509
-1.42932
-1.2006
-1.11589
-1.04813
-0.87871
-0.611878
-0.345045
-0.133273
-0.035858
-0.0019745
0.0107318
-0.0146808
-0.0570352
-0.0866833
-0.10786
-0.124802
-0.137508
-0.145979
-0.158686
-0.171392
-0.184098
-0.20104
-0.213746
-0.239159
-0.281513
-0.281513
-0.24763
-0.222217
-0.205276
-0.188334
-0.175627
-0.171392
-0.175627
-0.192569
-0.222217
-0.256101
-0.323868
-0.400106
-0.433989
-0.463637
-0.366222
-0.277278
-0.222217
-0.171392
-0.129038
-0.0993896
-0.0697415
-0.0019745
0.0954406
0.150501
0.180149
0.201326
0.222504
0.230975
0.243681
0.264858
0.290271
0.23521
0.180149
0.137795
0.0954406
0.0573216
-0.0104454
-0.116331
-0.175627
-0.196805
-0.217982
-0.234924
-0.24763
-0.256101
-0.268807
-0.277278
-0.285749
-0.289984
-0.29422
-0.302691
-0.311161
-0.323868
-0.357751
-0.421283
-0.472108
-0.501756
-0.455166
-0.417047
-0.391635
-0.374693
-0.353516
-0.336574
-0.323868
-0.302691
-0.277278
-0.264572
-0.285749
-0.328103
-0.361987
-0.391635
-0.425518
-0.450931
-0.472108
-0.497521
-0.518698
-0.53564
-0.53564
-0.514462
-0.480579
-0.446695
-0.404341
-0.370458
-0.34928
-0.315397
-0.285749
-0.268807
-0.24763
-0.230688
-0.243394
-0.256101
-0.268807
-0.264572
-0.222217
-0.196805
-0.179863
-0.167157
-0.15445
-0.145979
-0.133273
-0.124802
-0.112096
-0.103625
-0.0909187
-0.0697415
0.0149672
0.175914
0.358038
0.514749
0.658754
0.701108
0.713814
0.679931
0.489336
0.158972
-0.268807
-0.734705
-1.16248
-1.49285
-1.63262
-1.67497
-1.61991
-1.4632
-1.26837
-1.13707
-1.0693
-0.967654
-0.760118
-0.501756
-0.24763
-0.0485643
0.0107318
-0.0104454
-0.0824478
-0.188334
-0.230688
-0.234924
-0.234924
-0.234924
-0.234924
-0.230688
-0.230688
-0.230688
-0.230688
-0.230688
-0.226453
-0.217982
-0.205276
-0.188334
-0.175627
-0.15445
-0.10786
-0.0612706
0.00226094
0.0827342
0.150501
0.226739
0.319919
0.387686
0.425805
0.455453
0.451217
0.408863
0.370744
0.336861
0.307212
0.277564
0.256387
0.23521
0.218268
0.209797
0.214033
0.23521
0.260623
0.294506
0.341096
0.387686
0.421569
0.446982
0.472394
0.502043
0.535926
0.599458
0.650283
0.658754
0.667225
0.658754
0.616399
0.56981
0.518984
0.47663
0.43004
0.358038
0.269093
0.197091
0.163208
0.14203
0.129324
0.129324
0.158972
0.192856
0.222504
0.256387
0.2818
0.302977
0.324154
0.345331
0.370744
0.38345
0.358038
0.315683
0.298742
0.2818
0.269093
0.256387
0.243681
0.230975
0.226739
0.222504
0.222504
0.222504
0.226739
0.226739
0.23521
0.243681
0.256387
0.269093
0.286035
0.315683
0.396157
0.446982
0.47663
0.502043
0.514749
0.514749
0.502043
0.480865
0.455453
0.413098
0.324154
0.269093
0.239445
0.214033
0.201326
0.197091
0.197091
0.197091
0.192856
0.18862
0.184385
0.180149
0.180149
0.197091
0.218268
0.226739
0.23521
0.243681
0.252152
0.260623
0.269093
0.273329
0.273329
0.269093
0.264858
0.260623
0.260623
0.252152
0.243681
0.23521
0.201326
0.0869697
0.0149672
-0.0019745
-0.0146808
-0.0231517
-0.0273871
-0.0316226
-0.035858
-0.0400934
-0.0485643
-0.0570352
-0.0655061
-0.0782124
-0.116331
-0.15445
-0.167157
-0.175627
-0.171392
-0.150215
-0.133273
-0.120567
-0.112096
-0.10786
-0.112096
-0.124802
-0.141744
-0.171392
-0.162921
-0.0400934
0.180149
0.459688
0.734992
0.967941
1.10771
1.10771
0.972176
0.574045
0.031909
-0.539875
-1.04813
-1.42085
-1.54791
-1.59026
-1.51826
-1.31072
-1.01848
-0.747411
-0.679645
-0.662703
-0.654232
-0.63729
-0.624584
-0.599171
-0.514462
-0.391635
-0.34928
-0.332339
-0.34928
-0.374693
-0.408576
-0.44246
-0.44246
-0.408576
-0.361987
-0.289984
-0.230688
-0.184098
-0.162921
-0.141744
-0.124802
-0.133273
-0.192569
-0.222217
-0.239159
-0.256101
-0.268807
-0.281513
-0.289984
-0.302691
-0.311161
-0.323868
-0.332339
-0.345045
-0.353516
-0.357751
-0.361987
-0.370458
-0.378928
-0.387399
-0.39587
-0.404341
-0.412812
-0.417047
-0.417047
-0.417047
-0.417047
-0.412812
-0.408576
-0.400106
-0.391635
-0.383164
-0.374693
-0.361987
-0.336574
-0.306926
-0.260336
-0.184098
-0.116331
-0.0866833
-0.0697415
-0.0570352
-0.0739769
-0.10786
-0.145979
-0.196805
-0.234924
-0.256101
-0.273043
-0.285749
-0.298455
-0.311161
-0.323868
-0.336574
-0.357751
-0.39587
-0.467873
-0.527169
-0.569523
-0.569523
-0.527169
-0.484814
-0.433989
-0.387399
-0.345045
-0.302691
-0.264572
-0.243394
-0.226453
-0.213746
-0.20104
-0.188334
-0.179863
-0.167157
-0.141744
-0.112096
-0.137508
-0.222217
-0.378928
-0.603407
-0.806708
-0.870239
-0.836356
-0.734705
-0.518698
-0.387399
-0.34928
-0.328103
-0.306926
-0.289984
-0.273043
-0.256101
-0.234924
-0.213746
-0.188334
-0.171392
-0.158686
-0.145979
-0.129038
-0.103625
-0.150215
-0.226453
-0.289984
-0.315397
-0.332339
-0.345045
-0.353516
-0.353516
-0.34928
-0.340809
-0.332339
-0.323868
-0.311161
-0.298455
-0.285749
-0.273043
-0.264572
-0.260336
-0.256101
-0.251865
-0.24763
-0.24763
-0.243394
-0.24763
-0.251865
-0.24763
-0.243394
-0.239159
-0.230688
-0.222217
-0.222217
-0.217982
-0.209511
-0.20104
-0.188334
-0.175627
-0.137508
-0.0739769
-0.0485643
-0.035858
-0.0273871
-0.0231517
-0.0316226
-0.0570352
-0.0909187
-0.133273
-0.192569
-0.222217
-0.251865
-0.289984
-0.340809
-0.383164
-0.421283
-0.433989
-0.408576
-0.361987
-0.315397
-0.264572
-0.226453
-0.196805
-0.145979
-0.0655061
-0.0231517
0.00226094
0.0276736
0.0403799
0.0488507
0.0488507
0.0446153
0.0403799
0.0361444
0.0276736
0.0192027
0.0234381
0.0488507
0.0784988
0.112382
0.112382
0.0827342
0.0403799
-0.0231517
-0.0909187
-0.167157
-0.256101
-0.298455
-0.306926
-0.315397
-0.319632
-0.306926
-0.281513
-0.268807
-0.256101
-0.24763
-0.239159
-0.226453
-0.217982
-0.205276
-0.188334
-0.167157
-0.141744
-0.0993896
-0.0612706
0.0361444
0.239445
0.540161
0.921351
1.32372
1.61173
1.63714
1.45925
0.874761
0.108147
-0.658467
-1.24719
-1.50132
-1.53097
-1.45473
-1.25566
-1.03119
-0.83212
-0.658467
-0.480579
-0.298455
-0.230688
-0.205276
-0.205276
-0.243394
-0.29422
-0.340809
-0.366222
-0.387399
-0.383164
-0.34928
-0.29422
-0.226453
-0.171392
-0.116331
-0.0570352
-0.0189162
0.00649637
0.0234381
0.0276736
0.0234381
0.0192027
0.0192027
0.0149672
0.0107318
0.0107318
0.00649637
0.00649637
0.00226094
-0.0019745
-0.0104454
-0.0189162
-0.0231517
-0.0273871
-0.0316226
-0.0316226
-0.0443289
-0.0570352
-0.0655061
-0.0655061
-0.0570352
-0.0400934
-0.0273871
0.00226094
0.0573216
0.0912051
0.103911
0.112382
0.120853
0.125089
0.133559
0.137795
0.146266
0.154737
0.163208
0.171678
0.180149
0.18862
0.209797
0.243681
0.2818
0.315683
0.349567
0.379215
0.404628
0.425805
0.425805
0.400392
0.358038
0.307212
0.260623
0.226739
0.180149
0.0700279
-0.035858
-0.145979
-0.24763
-0.345045
-0.438225
-0.497521
-0.561052
-0.607642
-0.645761
-0.63729
-0.527169
-0.378928
-0.251865
-0.205276
-0.171392
-0.150215
-0.133273
-0.120567
-0.124802
-0.137508
-0.158686
-0.179863
-0.209511
-0.209511
-0.188334
-0.15445
-0.167157
-0.243394
-0.285749
-0.29422
-0.302691
-0.311161
-0.319632
-0.319632
-0.315397
-0.298455
-0.277278
-0.251865
-0.217982
-0.167157
-0.158686
-0.175627
-0.179863
-0.184098
-0.188334
-0.196805
-0.196805
-0.20104
-0.205276
-0.209511
-0.213746
-0.222217
-0.226453
-0.234924
-0.243394
-0.251865
-0.277278
-0.281513
-0.256101
-0.188334
-0.0866833
0.0700279
0.298742
0.586751
0.883232
1.09077
1.10347
0.967941
0.544397
-0.0316226
-0.666938
-1.21755
-1.55638
-1.61991
-1.60297
-1.44626
-1.24719
-1.03966
-0.798237
-0.522933
-0.251865
-0.0527998
0.0107318
0.00649637
-0.0824478
-0.184098
-0.230688
-0.243394
-0.24763
-0.24763
-0.251865
-0.256101
-0.256101
-0.260336
-0.264572
-0.268807
-0.273043
-0.273043
-0.277278
-0.277278
-0.277278
-0.281513
-0.285749
-0.306926
-0.298455
-0.230688
-0.171392
-0.116331
-0.0697415
0.00226094
0.0912051
0.192856
0.294506
0.366509
0.396157
0.345331
0.315683
0.298742
0.2818
0.273329
0.264858
0.256387
0.247916
0.239445
0.23521
0.230975
0.222504
0.214033
0.205562
0.197091
0.167443
0.167443
0.197091
0.226739
0.260623
0.298742
0.349567
0.404628
0.459688
0.497807
0.518984
0.535926
0.497807
0.451217
0.417334
0.396157
0.379215
0.324154
0.239445
0.129324
0.0192027
-0.0824478
-0.150215
-0.196805
-0.222217
-0.239159
-0.239159
-0.222217
-0.196805
-0.150215
-0.0782124
-0.0231517
0.0107318
0.0149672
0.0234381
-0.00620994
-0.0697415
-0.103625
-0.137508
-0.171392
-0.226453
-0.277278
-0.289984
-0.298455
-0.302691
-0.306926
-0.311161
-0.306926
-0.289984
-0.268807
-0.24763
-0.209511
-0.15445
-0.124802
-0.0909187
-0.0316226
0.0403799
0.120853
0.175914
0.214033
0.230975
0.23521
0.222504
0.201326
0.14203
0.0234381
-0.0993896
-0.226453
-0.336574
-0.39587
-0.450931
-0.484814
-0.497521
-0.505992
-0.514462
-0.476344
-0.412812
-0.361987
-0.29422
-0.167157
0.0403799
0.345331
0.696873
1.03571
1.33219
1.50584
1.51431
1.37878
0.929822
0.218268
-0.54411
-1.17519
-1.42508
-1.43779
-1.2599
-0.967654
-0.734705
-0.620348
-0.565288
-0.510227
-0.438225
-0.378928
-0.353516
-0.332339
-0.306926
-0.289984
-0.277278
-0.260336
-0.222217
-0.158686
-0.120567
-0.0951541
-0.0824478
-0.0824478
-0.103625
-0.129038
-0.158686
-0.196805
-0.196805
-0.167157
-0.129038
-0.0697415
-0.0400934
-0.0316226
-0.0231517
-0.0146808
-0.0104454
-0.00620994
0.00226094
0.0107318
0.0149672
0.0234381
0.0361444
0.0615571
0.112382
0.146266
0.171678
0.171678
0.14203
0.103911
0.0573216
0.0276736
0.0107318
-0.0019745
-0.0146808
-0.0316226
-0.0570352
-0.0824478
-0.0570352
-0.0316226
-0.0231517
-0.0104454
0.00226094
0.0149672
0.031909
0.0954406
0.201326
0.247916
0.269093
0.286035
0.294506
0.286035
0.264858
0.23521
0.197091
0.150501
0.099676
0.0446153
-0.0316226
-0.0951541
-0.137508
-0.167157
-0.179863
-0.222217
-0.345045
-0.476344
-0.531404
-0.569523
-0.552581
-0.459402
-0.391635
-0.34928
-0.311161
-0.277278
-0.192569
-0.124802
-0.103625
-0.137508
-0.243394
-0.340809
-0.370458
-0.383164
-0.374693
-0.357751
-0.332339
-0.306926
-0.268807
-0.222217
-0.150215
-0.0951541
-0.0655061
-0.0443289
-0.0316226
-0.0231517
-0.0146808
-0.0104454
-0.00620994
-0.0019745
0.00226094
0.00649637
0.0107318
0.0107318
0.0149672
0.0107318
0.0107318
0.0107318
0.00649637
-0.0019745
-0.0146808
-0.0273871
-0.0400934
-0.0612706
-0.10786
-0.184098
-0.230688
-0.264572
-0.289984
-0.311161
-0.332339
-0.328103
-0.289984
-0.188334
-0.0739769
-0.0189162
0.0192027
0.0403799
0.0657925
0.0954406
0.116618
0.133559
0.150501
0.163208
0.171678
0.175914
0.180149
0.197091
0.180149
0.099676
0.0403799
-0.0104454
-0.0104454
0.0869697
0.294506
0.514749
0.713814
0.921351
1.12465
1.26019
1.27289
1.18395
0.900174
0.463924
-0.035858
-0.510227
-0.895652
-1.21755
-1.47591
-1.55638
-1.54367
-1.38696
-1.16672
-0.827885
-0.429754
-0.116331
-0.0231517
-0.0316226
-0.124802
-0.188334
-0.234924
-0.230688
-0.133273
0.0403799
0.180149
0.226739
0.205562
0.14203
0.0488507
0.0149672
0.00226094
0.0107318
0.0276736
0.0446153
0.0615571
0.0615571
0.0192027
-0.0316226
-0.103625
-0.213746
-0.298455
-0.323868
-0.298455
-0.226453
-0.10786
-0.0443289
-0.0019745
0.0361444
0.0700279
0.0912051
0.103911
0.116618
0.129324
0.146266
0.158972
0.180149
0.222504
0.298742
0.341096
0.358038
0.370744
0.379215
0.38345
0.38345
0.379215
0.379215
0.370744
0.362273
0.349567
0.324154
0.269093
0.243681
0.226739
0.214033
0.205562
0.201326
0.201326
0.205562
0.214033
0.226739
0.239445
0.256387
0.256387
0.214033
0.154737
0.0954406
0.0742634
0.0573216
0.0446153
0.0403799
0.0403799
0.0488507
0.0615571
0.0784988
0.0954406
0.116618
0.129324
0.120853
0.108147
0.0912051
0.0742634
0.099676
0.129324
0.146266
0.14203
0.103911
0.0742634
0.0530862
0.0361444
0.00649637
-0.0231517
-0.0655061
-0.15445
-0.234924
-0.264572
-0.285749
-0.285749
-0.264572
-0.243394
-0.230688
-0.217982
-0.20104
-0.179863
-0.15445
-0.124802
-0.0824478
-0.0739769
-0.0824478
-0.0951541
-0.10786
-0.0824478
-0.0485643
-0.0273871
-0.0273871
-0.0485643
-0.0697415
-0.0866833
-0.103625
-0.124802
-0.145979
-0.171392
-0.20104
-0.239159
-0.260336
-0.243394
-0.196805
-0.124802
-0.0231517
0.146266
0.336861
0.485101
0.489336
0.396157
0.116618
-0.268807
-0.700822
-1.08625
-1.39543
-1.53097
-1.57756
-1.50979
-1.30225
-1.01001
-0.726234
-0.429754
-0.124802
0.0403799
0.103911
0.125089
0.112382
0.0869697
0.00649637
-0.145979
-0.332339
-0.44246
-0.44246
-0.336574
-0.184098
-0.133273
-0.15445
-0.217982
-0.361987
-0.484814
-0.527169
-0.548346
-0.531404
-0.48905
-0.429754
-0.328103
-0.205276
-0.10786
-0.0655061
-0.0400934
-0.0231517
-0.00620994
0.0107318
0.0234381
0.0403799
0.0657925
0.0784988
0.0615571
0.0234381
-0.0104454
-0.0485643
-0.0824478
-0.10786
-0.133273
-0.162921
-0.158686
-0.120567
-0.0782124
-0.0316226
0.0403799
0.116618
0.18862
0.222504
0.247916
0.269093
0.2818
0.286035
0.269093
0.239445
0.205562
0.158972
0.120853
0.0784988
0.0361444
-0.0231517
-0.0739769
-0.120567
-0.162921
-0.20104
-0.226453
-0.243394
-0.260336
-0.273043
-0.277278
-0.281513
-0.285749
-0.285749
-0.289984
-0.29422
-0.302691
-0.268807
-0.222217
-0.188334
-0.243394
-0.29422
-0.323868
-0.353516
-0.383164
-0.412812
-0.527169
-0.700822
-0.827885
-0.870239
-0.802472
-0.726234
-0.666938
-0.633055
-0.611878
-0.577994
-0.514462
-0.463637
-0.438225
-0.421283
-0.408576
-0.391635
-0.383164
-0.378928
-0.370458
-0.361987
-0.357751
-0.34928
-0.345045
-0.336574
-0.332339
-0.323868
-0.315397
-0.306926
-0.289984
-0.268807
-0.192569
-0.0485643
0.129324
0.336861
0.574045
0.790052
0.887467
0.862055
0.654518
0.230975
-0.281513
-0.789766
-1.1879
-1.36579
-1.37849
-1.26413
-0.997302
-0.666938
-0.370458
-0.184098
-0.124802
-0.167157
-0.243394
-0.328103
-0.400106
-0.446695
-0.404341
-0.273043
-0.150215
-0.103625
-0.103625
-0.141744
-0.243394
-0.370458
-0.412812
-0.425518
-0.408576
-0.370458
-0.332339
-0.29422
-0.251865
-0.213746
-0.175627
-0.137508
-0.0993896
-0.0612706
-0.00620994
0.0912051
0.18862
0.252152
0.264858
0.273329
0.277564
0.2818
0.2818
0.264858
0.239445
0.205562
0.180149
0.154737
0.133559
0.116618
0.108147
0.103911
0.103911
0.099676
0.099676
0.0912051
0.154737
0.260623
0.362273
0.408863
0.434276
0.451217
0.468159
0.472394
0.468159
0.451217
0.425805
0.396157
0.370744
0.349567
0.32839
0.302977
0.277564
0.252152
0.226739
0.205562
0.175914
0.146266
0.099676
0.0615571
0.0276736
0.00226094
-0.0273871
-0.0612706
-0.0782124
-0.0655061
-0.0400934
-0.0316226
-0.0231517
-0.0104454
-0.0019745
0.00649637
0.00649637
0.00649637
0.00226094
-0.00620994
-0.0146808
-0.0273871
-0.0400934
-0.0655061
-0.10786
-0.129038
-0.116331
-0.0824478
-0.0316226
0.031909
0.0573216
0.0742634
0.0827342
0.0869697
0.0912051
0.0954406
0.0869697
0.0742634
0.0573216
-0.0104454
-0.141744
-0.196805
-0.243394
-0.226453
-0.15445
-0.120567
-0.0951541
-0.0782124
-0.0655061
-0.0231517
0.103911
0.269093
0.324154
0.345331
0.358038
0.370744
0.379215
0.387686
0.400392
0.421569
0.366509
0.311448
0.269093
0.23521
0.205562
0.180149
0.150501
0.137795
0.154737
0.18862
0.290271
0.468159
0.654518
0.857819
1.07806
1.23054
1.28136
1.20089
0.955234
0.493572
-0.0485643
-0.594936
-1.01001
-1.22178
-1.29378
-1.26413
-1.17943
-1.00154
-0.764353
-0.480579
-0.205276
-0.0570352
-0.0189162
0.0107318
0.0276736
0.0361444
0.0361444
0.031909
0.0234381
0.00649637
-0.0104454
-0.0316226
-0.0782124
-0.184098
-0.239159
-0.264572
-0.281513
-0.29422
-0.311161
-0.323868
-0.336574
-0.345045
-0.357751
-0.366222
-0.378928
-0.404341
-0.446695
-0.48905
-0.522933
-0.556817
-0.552581
-0.505992
-0.438225
-0.361987
-0.256101
-0.124802
-0.0443289
0.0446153
0.116618
0.154737
0.175914
0.192856
0.201326
0.192856
0.175914
0.146266
0.112382
0.0657925
0.0615571
0.0573216
0.0488507
0.0446153
0.0657925
0.108147
0.137795
0.158972
0.180149
0.197091
0.209797
0.214033
0.209797
0.205562
0.197091
0.18862
0.175914
0.163208
0.14203
0.116618
0.0784988
0.031909
-0.0189162
-0.0739769
-0.116331
-0.145979
-0.196805
-0.277278
-0.378928
-0.44246
-0.463637
-0.476344
-0.48905
-0.497521
-0.497521
-0.493285
-0.476344
-0.459402
-0.438225
-0.421283
-0.400106
-0.370458
-0.357751
-0.361987
-0.383164
-0.404341
-0.421283
-0.44246
-0.459402
-0.463637
-0.459402
-0.446695
-0.429754
-0.421283
-0.408576
-0.39587
-0.383164
-0.378928
-0.370458
-0.366222
-0.366222
-0.366222
-0.366222
-0.370458
-0.383164
-0.391635
-0.404341
-0.421283
-0.433989
-0.455166
-0.501756
-0.53564
-0.556817
-0.577994
-0.603407
-0.611878
-0.594936
-0.556817
-0.510227
-0.455166
-0.400106
-0.361987
-0.332339
-0.306926
-0.289984
-0.277278
-0.264572
-0.256101
-0.256101
-0.251865
-0.24763
-0.239159
-0.234924
-0.230688
-0.222217
-0.217982
-0.213746
-0.213746
-0.209511
-0.209511
-0.209511
-0.209511
-0.205276
-0.20104
-0.192569
-0.188334
-0.179863
-0.179863
-0.179863
-0.184098
-0.188334
-0.196805
-0.213746
-0.175627
-0.0612706
0.112382
0.362273
0.650283
0.934057
1.13312
1.20089
1.10771
0.828171
0.286035
-0.315397
-0.857533
-1.15401
-1.24719
-1.20907
-1.10742
-0.929535
-0.849062
-0.798237
-0.755882
-0.709293
-0.577994
-0.366222
-0.145979
-0.0570352
-0.0316226
-0.0231517
-0.0146808
-0.0019745
0.0107318
0.0276736
0.0446153
0.0657925
0.0869697
0.112382
0.14203
0.171678
0.192856
0.214033
0.226739
0.239445
0.256387
0.273329
0.290271
0.302977
0.307212
0.302977
0.294506
0.286035
0.277564
0.273329
0.264858
0.256387
0.252152
0.243681
0.243681
0.243681
0.252152
0.260623
0.273329
0.286035
0.302977
0.324154
0.362273
0.396157
0.417334
0.43004
0.442746
0.455453
0.463924
0.468159
0.472394
0.47663
0.472394
0.468159
0.463924
0.463924
0.463924
0.463924
0.459688
0.455453
0.446982
0.446982
0.446982
0.455453
0.463924
0.468159
0.47663
0.485101
0.493572
0.502043
0.510513
0.514749
0.510513
0.497807
0.485101
0.446982
0.311448
0.14203
-0.0019745
-0.0443289
-0.0739769
-0.0993896
-0.120567
-0.137508
-0.167157
-0.20104
-0.15445
-0.10786
-0.0739769
-0.0570352
-0.0612706
-0.0697415
-0.0782124
-0.0824478
-0.0951541
-0.103625
-0.112096
-0.124802
-0.133273
-0.141744
-0.150215
-0.162921
-0.171392
-0.171392
-0.167157
-0.15445
-0.141744
-0.120567
-0.0993896
-0.0739769
-0.035858
-0.0104454
-0.0019745
0.00226094
0.0107318
0.0234381
-0.0104454
-0.0739769
-0.141744
-0.188334
-0.217982
-0.230688
-0.213746
-0.175627
-0.129038
-0.0824478
-0.0782124
-0.0739769
-0.0697415
-0.0655061
-0.0655061
-0.0739769
-0.0866833
-0.0951541
-0.10786
-0.116331
-0.116331
-0.112096
-0.10786
-0.10786
-0.103625
-0.0993896
-0.0951541
-0.0951541
-0.0909187
-0.0824478
-0.0739769
-0.0697415
-0.0570352
-0.0443289
-0.0316226
0.0446153
0.214033
0.489336
0.900174
1.37031
1.77267
1.88703
1.61596
0.997589
0.180149
-0.5907
-1.12437
-1.22602
-1.19213
-0.9253
-0.611878
-0.374693
-0.226453
-0.175627
-0.137508
-0.103625
-0.0443289
0.00226094
0.0234381
0.0403799
-0.0231517
-0.0739769
-0.120567
-0.145979
-0.150215
-0.141744
-0.129038
-0.124802
-0.120567
-0.120567
-0.116331
-0.10786
-0.103625
-0.0993896
-0.0909187
-0.0866833
-0.0782124
-0.0655061
-0.0570352
-0.0443289
-0.0316226
-0.0146808
-0.0019745
-0.0104454
-0.0231517
-0.0400934
-0.0189162
0.0446153
0.0827342
0.103911
0.108147
0.108147
0.103911
0.099676
0.0954406
0.099676
0.116618
0.133559
0.150501
0.129324
0.099676
0.0742634
0.120853
0.205562
0.252152
0.273329
0.2818
0.247916
0.201326
0.163208
0.18862
0.226739
0.252152
0.18862
0.129324
0.0954406
0.0657925
0.0403799
0.0234381
0.00649637
-0.0273871
-0.0612706
-0.0697415
-0.0782124
-0.0824478
-0.0824478
-0.0697415
-0.0443289
-0.0316226
-0.0189162
-0.0104454
-0.0019745
0.00649637
0.00649637
0.00649637
0.00226094
-0.0019745
-0.00620994
-0.0189162
-0.0316226
-0.0316226
-0.0104454
0.0107318
0.031909
0.0446153
0.0488507
0.0403799
0.0192027
-0.0019745
-0.0400934
-0.10786
-0.145979
-0.167157
-0.188334
-0.196805
-0.196805
-0.192569
-0.179863
-0.167157
-0.116331
-0.0316226
-0.00620994
0.0107318
0.0192027
0.0192027
0.0192027
0.00649637
-0.00620994
-0.035858
-0.124802
-0.222217
-0.256101
-0.230688
-0.205276
-0.188334
-0.188334
-0.205276
-0.226453
-0.243394
-0.243394
-0.209511
-0.188334
-0.175627
-0.158686
-0.137508
-0.112096
-0.0909187
-0.0655061
-0.0316226
-0.0146808
-0.0231517
-0.0443289
-0.0697415
-0.0951541
-0.0739769
-0.0443289
-0.0231517
-0.0273871
-0.0570352
-0.0951541
-0.133273
-0.137508
-0.124802
-0.10786
-0.0951541
-0.0951541
-0.124802
-0.141744
-0.15445
-0.162921
-0.171392
-0.175627
-0.175627
-0.175627
-0.171392
-0.167157
-0.158686
-0.145979
-0.0951541
-0.0019745
0.146266
0.324154
0.514749
0.709579
0.908645
1.04841
1.06112
0.984882
0.751933
0.404628
-0.00620994
-0.412812
-0.717763
-0.866004
-0.87871
-0.794001
-0.5907
-0.383164
-0.264572
-0.162921
-0.0104454
0.167443
0.298742
0.341096
0.307212
0.205562
-0.0400934
-0.306926
-0.527169
-0.624584
-0.628819
-0.552581
-0.429754
-0.281513
-0.145979
-0.0316226
0.0615571
0.116618
0.209797
0.319919
0.353802
0.366509
0.349567
0.286035
0.243681
0.218268
0.184385
0.133559
0.0869697
0.0573216
0.0530862
0.0700279
0.0912051
0.108147
0.0869697
0.0530862
0.0276736
0.0657925
0.129324
0.197091
0.264858
0.324154
0.362273
0.387686
0.400392
0.387686
0.349567
0.247916
0.120853
0.0827342
0.0700279
0.0615571
0.0530862
0.0530862
0.0657925
0.0784988
0.0869697
0.0912051
0.0954406
0.103911
0.108147
0.120853
0.129324
0.146266
0.163208
0.205562
0.247916
0.256387
0.264858
0.264858
0.252152
0.226739
0.192856
0.14203
0.0488507
-0.0782124
-0.222217
-0.319632
-0.353516
-0.370458
-0.374693
-0.370458
-0.34928
-0.323868
-0.277278
-0.192569
-0.116331
-0.0655061
-0.0400934
-0.0316226
-0.0231517
-0.0189162
-0.0104454
-0.0019745
0.00226094
0.00226094
-0.0019745
-0.0189162
-0.0443289
-0.0824478
-0.213746
-0.281513
-0.306926
-0.306926
-0.289984
-0.277278
-0.268807
-0.260336
-0.251865
-0.243394
-0.234924
-0.217982
-0.179863
-0.192569
-0.264572
-0.311161
-0.311161
-0.281513
-0.230688
-0.171392
-0.120567
-0.0866833
-0.120567
-0.150215
-0.167157
-0.184098
-0.192569
-0.196805
-0.188334
-0.175627
-0.162921
-0.145979
-0.129038
-0.0993896
-0.0824478
-0.0951541
-0.124802
-0.150215
-0.175627
-0.196805
-0.205276
-0.196805
-0.179863
-0.162921
-0.158686
-0.150215
-0.145979
-0.137508
-0.129038
-0.120567
-0.116331
-0.10786
-0.0993896
-0.0866833
-0.0612706
0.0107318
0.125089
0.273329
0.438511
0.616399
0.815465
0.989118
1.0103
0.942528
0.57828
-0.0019745
-0.649996
-1.2006
-1.52673
-1.57756
-1.51826
-1.29802
-1.08201
-0.950713
-0.823649
-0.658467
-0.480579
-0.302691
-0.217982
-0.167157
-0.133273
-0.10786
-0.0951541
-0.0866833
-0.0782124
-0.0697415
-0.0655061
-0.0655061
-0.0612706
-0.0570352
-0.0527998
-0.0485643
-0.0443289
-0.0400934
-0.035858
-0.0316226
-0.0189162
-0.0104454
-0.0231517
-0.0485643
-0.0655061
-0.0866833
-0.0993896
-0.10786
-0.10786
-0.0993896
-0.0824478
-0.0612706
-0.0273871
0.0403799
0.0827342
0.099676
0.116618
0.129324
0.137795
0.150501
0.163208
0.175914
0.192856
0.218268
0.256387
0.307212
0.345331
0.370744
0.396157
0.404628
0.396157
0.374979
0.341096
0.23521
0.112382
0.0573216
0.0361444
0.0234381
0.0107318
0.00649637
0.0192027
0.0446153
0.0742634
0.099676
0.125089
0.150501
0.167443
0.171678
0.167443
0.154737
0.14203
0.125089
0.0912051
0.0234381
-0.0231517
-0.0443289
-0.0866833
-0.145979
-0.179863
-0.209511
-0.234924
-0.256101
-0.264572
-0.256101
-0.243394
-0.217982
-0.192569
-0.133273
-0.0570352
-0.0273871
-0.0019745
0.0192027
0.0276736
0.0149672
-0.0231517
-0.0570352
-0.0866833
-0.124802
-0.15445
-0.179863
-0.196805
-0.217982
-0.24763
-0.285749
-0.298455
-0.319632
-0.29422
-0.217982
-0.184098
-0.150215
-0.124802
-0.0993896
-0.0570352
0.0149672
0.0784988
0.129324
0.184385
0.315683
0.561339
0.908645
1.26866
1.49737
1.50584
1.33642
0.828171
0.099676
-0.726234
-1.48014
-1.93333
-2.00534
-1.89945
-1.56909
-1.25143
-0.997302
-0.73047
-0.476344
-0.289984
-0.226453
-0.188334
-0.162921
-0.124802
-0.0739769
-0.0527998
-0.0400934
-0.0316226
-0.0231517
-0.0231517
-0.0316226
-0.0443289
-0.0570352
-0.0739769
-0.0782124
-0.0612706
-0.0316226
-0.0231517
-0.0189162
-0.0104454
-0.00620994
0.00226094
0.00649637
0.00649637
0.00226094
-0.00620994
-0.0146808
-0.0231517
-0.0316226
-0.0443289
-0.0655061
-0.0824478
-0.0909187
-0.0909187
-0.0697415
-0.035858
-0.00620994
0.0234381
0.0530862
0.0869697
0.112382
0.137795
0.154737
0.167443
0.184385
0.214033
0.264858
0.311448
0.353802
0.387686
0.400392
0.38345
0.353802
0.332625
0.319919
0.311448
0.302977
0.290271
0.277564
0.264858
0.247916
0.230975
0.209797
0.167443
0.0827342
0.0149672
-0.035858
-0.103625
-0.158686
-0.20104
-0.226453
-0.230688
-0.217982
-0.205276
-0.196805
-0.184098
-0.175627
-0.167157
-0.158686
-0.15445
-0.150215
-0.145979
-0.141744
-0.129038
-0.120567
-0.112096
-0.120567
-0.141744
-0.167157
-0.184098
-0.20104
-0.217982
-0.230688
-0.230688
-0.217982
-0.192569
-0.158686
-0.0993896
-0.0443289
-0.0231517
-0.0400934
-0.137508
-0.188334
-0.205276
-0.217982
-0.239159
-0.281513
-0.34928
-0.387399
-0.400106
-0.374693
-0.209511
-0.15445
-0.137508
-0.120567
-0.0993896
-0.0782124
0.00226094
0.0700279
0.0912051
0.0446153
-0.035858
-0.0909187
-0.10786
-0.124802
-0.141744
-0.158686
-0.217982
-0.319632
-0.353516
-0.374693
-0.378928
-0.374693
-0.357751
-0.332339
-0.285749
-0.217982
-0.150215
-0.0824478
0.0403799
0.158972
0.286035
0.438511
0.590987
0.679931
0.709579
0.662989
0.514749
0.214033
-0.175627
-0.5907
-0.942242
-1.11166
-1.11589
-0.984596
-0.743176
-0.48905
-0.34928
-0.298455
-0.302691
-0.34928
-0.400106
-0.446695
-0.446695
-0.387399
-0.234924
-0.0443289
0.0446153
0.0742634
0.031909
-0.035858
-0.0993896
-0.133273
-0.15445
-0.179863
-0.213746
-0.239159
-0.256101
-0.273043
-0.289984
-0.298455
-0.29422
-0.289984
-0.273043
-0.256101
-0.192569
-0.0866833
-0.0570352
-0.0400934
-0.0273871
-0.00620994
0.0107318
0.031909
0.0615571
0.0954406
0.0615571
0.0149672
-0.0189162
-0.0189162
0.0149672
0.0361444
0.0530862
0.0700279
0.0827342
0.0827342
0.0784988
0.0657925
0.0488507
0.0149672
-0.035858
-0.0866833
-0.120567
-0.0993896
-0.035858
0.0615571
0.175914
0.218268
0.23521
0.247916
0.252152
0.247916
0.222504
0.184385
0.150501
0.120853
0.0912051
0.0700279
0.0530862
0.0361444
-0.0400934
-0.150215
-0.209511
-0.24763
-0.273043
-0.285749
-0.285749
-0.273043
-0.24763
-0.171392
-0.0782124
-0.0570352
-0.0400934
-0.0316226
-0.0273871
-0.0189162
-0.0104454
-0.00620994
-0.0019745
0.00226094
0.00649637
0.0107318
0.0192027
0.031909
0.0573216
0.0149672
-0.103625
-0.192569
-0.222217
-0.239159
-0.24763
-0.24763
-0.230688
-0.209511
-0.184098
-0.162921
-0.141744
-0.116331
-0.103625
-0.103625
-0.116331
-0.133273
-0.15445
-0.171392
-0.188334
-0.205276
-0.217982
-0.226453
-0.234924
-0.239159
-0.243394
-0.24763
-0.256101
-0.264572
-0.264572
-0.251865
-0.226453
-0.192569
-0.145979
-0.0909187
-0.0824478
-0.0739769
-0.0612706
-0.0866833
-0.116331
-0.133273
-0.15445
-0.196805
-0.24763
-0.29422
-0.353516
-0.383164
-0.370458
-0.332339
-0.298455
-0.256101
-0.217982
-0.184098
-0.141744
-0.0951541
-0.0739769
-0.0527998
-0.035858
-0.0189162
0.0107318
0.099676
0.239445
0.417334
0.62487
0.878996
1.12889
1.23901
1.20513
0.908645
0.290271
-0.450931
-1.15401
-1.64109
-1.80204
-1.67921
-1.41238
-1.04813
-0.705057
-0.450931
-0.29422
-0.20104
-0.162921
-0.145979
-0.133273
-0.124802
-0.116331
-0.112096
-0.103625
-0.0951541
-0.0866833
-0.0782124
-0.0697415
-0.0612706
-0.0527998
-0.0485643
-0.0400934
-0.0316226
-0.0146808
0.00649637
0.0192027
0.0234381
0.0276736
0.0361444
0.0488507
0.0573216
0.0530862
0.0403799
0.0276736
0.0107318
0.0192027
0.0742634
0.108147
0.133559
0.150501
0.163208
0.175914
0.18862
0.201326
0.209797
0.218268
0.226739
0.230975
0.239445
0.252152
0.269093
0.277564
0.277564
0.269093
0.260623
0.243681
0.230975
0.205562
0.197091
0.214033
0.243681
0.269093
0.294506
0.307212
0.286035
0.239445
0.197091
0.154737
0.125089
0.108147
0.0784988
0.0530862
0.0403799
0.0276736
0.0149672
0.0107318
0.0192027
0.0276736
0.031909
0.0403799
0.0446153
0.0488507
0.0446153
0.0403799
0.0361444
0.0361444
0.0276736
0.0149672
0.0149672
0.0361444
0.0615571
0.0869697
0.0276736
-0.0400934
-0.103625
-0.15445
-0.20104
-0.239159
-0.251865
-0.251865
-0.260336
-0.268807
-0.20104
-0.0866833
-0.00620994
0.0234381
0.0403799
0.0488507
0.0488507
0.0234381
-0.00620994
-0.0316226
-0.0485643
-0.0782124
-0.103625
-0.124802
-0.145979
-0.162921
-0.184098
-0.205276
-0.222217
-0.234924
-0.24763
-0.260336
-0.268807
-0.281513
-0.29422
-0.302691
-0.306926
-0.306926
-0.302691
-0.29422
-0.285749
-0.281513
-0.264572
-0.234924
-0.285749
-0.328103
-0.357751
-0.383164
-0.404341
-0.417047
-0.433989
-0.446695
-0.459402
-0.476344
-0.484814
-0.484814
-0.467873
-0.438225
-0.408576
-0.374693
-0.336574
-0.298455
-0.268807
-0.239159
-0.209511
-0.184098
-0.158686
-0.137508
-0.120567
-0.0951541
-0.0485643
0.0276736
0.180149
0.396157
0.701108
1.04418
1.2263
1.20936
0.942528
0.379215
-0.29422
-0.929535
-1.38273
-1.47167
-1.49708
-1.43779
-1.33614
-1.23449
-1.14978
-1.07778
-0.97189
-0.844827
-0.679645
-0.518698
-0.366222
-0.285749
-0.234924
-0.20104
-0.205276
-0.260336
-0.302691
-0.336574
-0.366222
-0.374693
-0.361987
-0.332339
-0.29422
-0.230688
-0.141744
-0.103625
-0.0782124
-0.0570352
-0.0485643
-0.0485643
-0.0612706
-0.0824478
-0.0993896
-0.116331
-0.129038
-0.145979
-0.167157
-0.192569
-0.217982
-0.251865
-0.29422
-0.353516
-0.353516
-0.302691
-0.222217
-0.137508
-0.0655061
0.00649637
0.0784988
0.150501
0.214033
0.260623
0.302977
0.324154
0.341096
0.353802
0.362273
0.366509
0.362273
0.345331
0.32839
0.307212
0.290271
0.269093
0.247916
0.230975
0.222504
0.222504
0.226739
0.230975
0.239445
0.252152
0.269093
0.226739
0.158972
0.0742634
0.031909
0.0192027
0.00649637
-0.00620994
-0.0189162
-0.0273871
-0.0316226
-0.035858
-0.0400934
-0.0443289
-0.0485643
-0.0570352
-0.0612706
-0.0655061
-0.0697415
-0.0782124
-0.0909187
-0.0993896
-0.112096
-0.120567
-0.124802
-0.133273
-0.150215
-0.175627
-0.175627
-0.133273
-0.0909187
-0.0400934
0.0107318
0.0446153
0.0742634
0.0912051
0.0869697
0.0657925
0.0361444
0.0107318
-0.0104454
-0.0316226
-0.0485643
-0.0612706
-0.0697415
-0.0782124
-0.0951541
-0.112096
-0.129038
-0.150215
-0.162921
-0.188334
-0.217982
-0.171392
-0.124802
-0.0951541
-0.0612706
-0.0316226
-0.0019745
0.0615571
0.150501
0.197091
0.226739
0.252152
0.260623
0.256387
0.239445
0.214033
0.175914
0.103911
0.0403799
0.00226094
0.00226094
0.0446153
0.0700279
0.0912051
0.112382
0.129324
0.137795
0.146266
0.154737
0.167443
0.192856
0.18862
0.137795
0.0657925
-0.0273871
-0.0697415
-0.0951541
-0.116331
-0.124802
-0.124802
-0.120567
-0.10786
-0.0866833
-0.0485643
0.00226094
0.0234381
0.0361444
0.0446153
0.0488507
0.0573216
0.0615571
0.0657925
0.0657925
0.0615571
0.0573216
0.0488507
0.0361444
0.0276736
0.0192027
0.00649637
-0.0019745
-0.0189162
-0.0316226
-0.0485643
-0.0739769
-0.10786
-0.167157
-0.171392
-0.129038
-0.0189162
0.171678
0.43004
0.751933
1.10347
1.35337
1.43384
1.34066
1.06536
0.57828
0.0107318
-0.493285
-0.857533
-0.993067
-1.03966
-1.00154
-0.954948
-0.912594
-0.857533
-0.721999
-0.527169
-0.345045
-0.260336
-0.222217
-0.20104
-0.179863
-0.162921
-0.141744
-0.124802
-0.116331
-0.112096
-0.103625
-0.0993896
-0.0909187
-0.0866833
-0.0824478
-0.0739769
-0.0697415
-0.0655061
-0.0612706
-0.0655061
-0.0697415
-0.0739769
-0.0824478
-0.0909187
-0.0951541
-0.103625
-0.10786
-0.116331
-0.124802
-0.133273
-0.145979
-0.171392
-0.188334
-0.167157
-0.129038
-0.0824478
-0.0273871
0.0149672
0.0700279
0.154737
0.218268
0.247916
0.269093
0.290271
0.311448
0.32839
0.345331
0.362273
0.38345
0.400392
0.413098
0.404628
0.387686
0.358038
0.311448
0.23521
0.180149
0.146266
0.150501
0.192856
0.226739
0.252152
0.273329
0.286035
0.298742
0.307212
0.324154
0.341096
0.332625
0.277564
0.222504
0.171678
0.125089
0.0869697
0.0446153
-0.0104454
-0.0697415
-0.124802
-0.179863
-0.192569
-0.196805
-0.196805
-0.196805
-0.196805
-0.192569
-0.167157
-0.133273
-0.0909187
-0.035858
0.00649637
0.031909
0.0530862
0.0700279
0.0827342
0.0954406
0.0954406
0.0912051
0.0869697
0.0784988
0.0700279
0.0615571
0.0530862
0.0403799
0.031909
0.0192027
0.00649637
-0.00620994
-0.0273871
-0.0485643
-0.0697415
-0.0866833
-0.0951541
-0.10786
-0.124802
-0.141744
-0.15445
-0.167157
-0.175627
-0.179863
-0.179863
-0.179863
-0.171392
-0.162921
-0.150215
-0.133273
-0.10786
-0.0824478
-0.0189162
0.0827342
0.125089
0.154737
0.167443
0.125089
0.0615571
0.0403799
0.0276736
0.0149672
0.00226094
-0.00620994
-0.0189162
-0.0316226
-0.0400934
-0.0485643
-0.0570352
-0.0655061
-0.0697415
-0.0697415
-0.0697415
-0.0697415
-0.0697415
-0.0697415
-0.0655061
-0.0612706
-0.0570352
-0.0527998
-0.0570352
-0.0612706
-0.0655061
-0.0612706
-0.0527998
-0.0485643
-0.0443289
-0.0400934
-0.0400934
-0.035858
-0.0316226
-0.0273871
-0.0273871
-0.0231517
-0.0273871
-0.0273871
-0.0273871
-0.0231517
-0.0146808
-0.0104454
-0.0104454
-0.00620994
-0.0019745
0.00649637
0.0149672
0.0192027
0.0234381
0.0234381
0.0234381
0.0276736
0.0361444
0.0488507
0.0573216
0.0700279
0.0827342
0.120853
0.226739
0.358038
0.493572
0.641812
0.76464
0.853584
0.908645
0.874761
0.773111
0.493572
0.112382
-0.302691
-0.700822
-0.997302
-1.09048
-1.12437
-1.0566
-0.857533
-0.603407
-0.366222
-0.158686
0.0276736
0.163208
0.209797
0.23521
0.243681
0.243681
0.230975
0.205562
0.158972
0.0192027
-0.120567
-0.162921
-0.188334
-0.205276
-0.213746
-0.222217
-0.217982
-0.209511
-0.188334
-0.162921
-0.129038
-0.0655061
0.0615571
0.171678
0.247916
0.247916
0.18862
0.146266
0.116618
0.0869697
0.0615571
0.0403799
0.0276736
0.0192027
0.00649637
-0.00620994
-0.0189162
-0.0231517
-0.0231517
-0.00620994
0.0192027
0.0488507
0.0700279
0.0827342
0.0954406
0.108147
0.125089
0.137795
0.146266
0.154737
0.163208
0.171678
0.180149
0.192856
0.201326
0.205562
0.205562
0.205562
0.205562
0.205562
0.209797
0.209797
0.209797
0.209797
0.214033
0.218268
0.218268
0.222504
0.226739
0.226739
0.230975
0.23521
0.239445
0.214033
0.167443
0.120853
0.0742634
0.0403799
0.0149672
-0.0316226
-0.10786
-0.141744
-0.158686
-0.167157
-0.171392
-0.175627
-0.179863
-0.188334
-0.196805
-0.205276
-0.209511
-0.209511
-0.213746
-0.217982
-0.222217
-0.230688
-0.243394
-0.260336
-0.298455
-0.29422
-0.226453
-0.167157
-0.112096
-0.0824478
-0.0824478
-0.0909187
-0.0993896
-0.116331
-0.112096
-0.0655061
-0.0316226
-0.0019745
0.0234381
0.0403799
0.0615571
0.0869697
0.125089
0.129324
0.0700279
0.00226094
-0.0655061
-0.112096
-0.133273
-0.150215
-0.162921
-0.175627
-0.179863
-0.188334
-0.196805
-0.20104
-0.205276
-0.209511
-0.209511
-0.209511
-0.209511
-0.213746
-0.217982
-0.222217
-0.205276
-0.167157
-0.129038
-0.103625
-0.0739769
-0.0527998
-0.0316226
-0.0189162
-0.00620994
0.00649637
0.0192027
0.0361444
0.0615571
0.0784988
0.0573216
0.0107318
-0.0273871
-0.0570352
-0.0909187
-0.10786
-0.112096
-0.10786
-0.0993896
-0.0909187
-0.0866833
-0.0782124
-0.0655061
-0.0570352
-0.0527998
-0.0655061
-0.0909187
-0.120567
-0.137508
-0.158686
-0.179863
-0.196805
-0.217982
-0.234924
-0.24763
-0.260336
-0.268807
-0.285749
-0.311161
-0.323868
-0.306926
-0.24763
-0.0951541
0.175914
0.57828
1.04418
1.45502
1.58631
1.53972
1.14159
0.531691
-0.133273
-0.717763
-1.05236
-1.16248
-1.11166
-0.954948
-0.68388
-0.421283
-0.323868
-0.285749
-0.256101
-0.243394
-0.277278
-0.340809
-0.378928
-0.412812
-0.44246
-0.463637
-0.463637
-0.44246
-0.408576
-0.361987
-0.277278
-0.120567
-0.0231517
0.0446153
0.0827342
0.0869697
0.0615571
0.0234381
-0.0104454
-0.0443289
-0.0739769
-0.0951541
-0.10786
-0.120567
-0.133273
-0.145979
-0.158686
-0.162921
-0.162921
-0.15445
-0.133273
-0.10786
-0.0739769
-0.0316226
0.0403799
0.116618
0.154737
0.180149
0.201326
0.214033
0.226739
0.23521
0.239445
0.243681
0.243681
0.239445
0.23521
0.222504
0.209797
0.192856
0.171678
0.129324
0.14203
0.222504
0.256387
0.2818
0.302977
0.324154
0.341096
0.358038
0.366509
0.374979
0.379215
0.379215
0.379215
0.379215
0.370744
0.353802
0.336861
0.315683
0.294506
0.273329
0.230975
0.150501
0.0869697
0.0234381
-0.035858
-0.103625
-0.145979
-0.175627
-0.205276
-0.222217
-0.226453
-0.209511
-0.184098
-0.15445
-0.116331
-0.0655061
-0.035858
-0.0273871
-0.0146808
-0.0019745
0.0107318
0.0149672
-0.0019745
-0.0316226
-0.0612706
-0.0993896
-0.141744
-0.184098
-0.217982
-0.251865
-0.289984
-0.340809
-0.336574
-0.277278
-0.234924
-0.20104
-0.171392
-0.150215
-0.129038
-0.112096
-0.0866833
-0.0570352
-0.0655061
-0.133273
-0.158686
-0.171392
-0.184098
-0.20104
-0.213746
-0.222217
-0.230688
-0.234924
-0.243394
-0.251865
-0.260336
-0.268807
-0.273043
-0.268807
-0.264572
-0.260336
-0.260336
-0.260336
-0.264572
-0.264572
-0.264572
-0.264572
-0.268807
-0.277278
-0.285749
-0.29422
-0.298455
-0.29422
-0.281513
-0.264572
-0.251865
-0.239159
-0.226453
-0.209511
-0.192569
-0.171392
-0.158686
-0.150215
-0.141744
-0.137508
-0.124802
-0.112096
-0.10786
-0.10786
-0.116331
-0.137508
-0.162921
-0.184098
-0.20104
-0.226453
-0.256101
-0.281513
-0.289984
-0.281513
-0.260336
-0.234924
-0.213746
-0.196805
-0.179863
-0.158686
-0.137508
-0.120567
-0.112096
-0.112096
-0.116331
-0.120567
-0.120567
-0.120567
-0.124802
-0.133273
-0.141744
-0.158686
-0.188334
-0.222217
-0.251865
-0.29422
-0.332339
-0.353516
-0.366222
-0.378928
-0.39587
-0.417047
-0.417047
-0.366222
-0.226453
-0.0612706
0.0954406
0.286035
0.531691
0.806994
1.06536
1.19665
1.24324
1.12889
0.785817
0.252152
-0.289984
-0.721999
-0.980361
-1.06507
-1.03119
-0.933771
-0.768589
-0.688115
-0.616113
-0.53564
-0.366222
-0.188334
-0.120567
-0.0655061
-0.0273871
0.0149672
0.0403799
0.0149672
-0.0443289
-0.150215
-0.264572
-0.311161
-0.340809
-0.361987
-0.370458
-0.366222
-0.345045
-0.328103
-0.311161
-0.298455
-0.289984
-0.273043
-0.256101
-0.239159
-0.213746
-0.184098
-0.145979
-0.0655061
0.0488507
0.0954406
0.129324
0.150501
0.158972
0.158972
0.146266
0.120853
0.0954406
0.0657925
0.0149672
0.0192027
0.0784988
0.108147
0.129324
0.146266
0.163208
0.175914
0.184385
0.18862
0.192856
0.197091
0.201326
0.205562
0.205562
0.205562
0.205562
0.209797
0.218268
0.214033
0.184385
0.137795
0.099676
0.0615571
0.031909
0.0149672
0.00226094
-0.00620994
-0.0273871
-0.0443289
-0.0443289
0.00226094
0.0742634
0.137795
0.158972
0.175914
0.18862
0.184385
0.158972
0.112382
0.0488507
-0.0739769
-0.196805
-0.277278
-0.302691
-0.319632
-0.336574
-0.353516
-0.357751
-0.345045
-0.319632
-0.29422
-0.277278
-0.264572
-0.251865
-0.239159
-0.230688
-0.217982
-0.209511
-0.20104
-0.196805
-0.196805
-0.20104
-0.205276
-0.213746
-0.222217
-0.226453
-0.230688
-0.234924
-0.234924
-0.239159
-0.243394
-0.24763
-0.256101
-0.264572
-0.273043
-0.281513
-0.285749
-0.277278
-0.260336
-0.243394
-0.217982
-0.196805
-0.15445
-0.124802
-0.120567
-0.145979
-0.192569
-0.277278
-0.374693
-0.404341
-0.421283
-0.433989
-0.44246
-0.450931
-0.455166
-0.450931
-0.446695
-0.44246
-0.429754
-0.404341
-0.374693
-0.256101
-0.0485643
0.247916
0.586751
0.878996
0.980647
0.908645
0.688402
0.14203
-0.497521
-1.06083
-1.38273
-1.50132
-1.50555
-1.45049
-1.37002
-1.25566
-1.13284
-1.01848
-0.823649
-0.628819
-0.412812
-0.298455
-0.222217
-0.162921
-0.162921
-0.230688
-0.268807
-0.298455
-0.323868
-0.340809
-0.357751
-0.374693
-0.387399
-0.39587
-0.412812
-0.421283
-0.429754
-0.44246
-0.455166
-0.476344
-0.48905
-0.480579
-0.433989
-0.357751
-0.243394
-0.0739769
0.00649637
0.0530862
0.0912051
0.116618
0.129324
0.120853
0.0954406
0.0657925
0.0403799
0.0192027
-0.0019745
-0.0189162
-0.0316226
-0.0443289
-0.0485643
-0.0443289
-0.035858
-0.0231517
0.00226094
0.0361444
0.103911
0.252152
0.341096
0.391921
0.425805
0.446982
0.446982
0.43004
0.408863
0.379215
0.336861
0.269093
0.205562
0.167443
0.137795
0.112382
0.0912051
0.0742634
0.0530862
0.0403799
0.0276736
0.0149672
0.00226094
-0.00620994
-0.0146808
-0.0189162
-0.0231517
-0.0316226
-0.035858
-0.0485643
-0.0570352
-0.0612706
-0.0697415
-0.0739769
-0.0824478
-0.0951541
-0.112096
-0.133273
-0.158686
-0.184098
-0.205276
-0.226453
-0.24763
-0.256101
-0.256101
-0.239159
-0.213746
-0.184098
-0.133273
-0.0273871
0.0615571
0.120853
0.158972
0.184385
0.205562
0.222504
0.23521
0.239445
0.222504
0.18862
0.146266
0.103911
0.0488507
-0.00620994
-0.0527998
-0.0951541
-0.133273
-0.162921
-0.162921
-0.133273
-0.0824478
-0.0273871
0.0530862
0.108147
0.154737
0.197091
0.218268
0.23521
0.260623
0.290271
0.256387
0.214033
0.180149
0.180149
0.230975
0.302977
0.391921
0.540161
0.701108
0.878996
0.934057
0.862055
0.650283
0.150501
-0.438225
-0.980361
-1.28108
-1.3192
-1.19637
-0.912594
-0.603407
-0.336574
-0.196805
-0.0697415
0.0276736
0.099676
0.146266
0.0869697
0.0234381
-0.0316226
-0.0316226
0.0234381
0.0488507
0.0615571
0.0742634
0.0869697
0.0954406
0.099676
0.103911
0.112382
0.120853
0.129324
0.137795
0.14203
0.137795
0.133559
0.133559
0.133559
0.137795
0.14203
0.146266
0.163208
0.18862
0.137795
0.0827342
0.0403799
0.0234381
0.0488507
0.103911
0.154737
0.205562
0.247916
0.273329
0.294506
0.311448
0.332625
0.349567
0.370744
0.400392
0.434276
0.468159
0.502043
0.531691
0.540161
0.527455
0.493572
0.459688
0.434276
0.408863
0.387686
0.366509
0.341096
0.319919
0.298742
0.2818
0.260623
0.239445
0.214033
0.197091
0.18862
0.18862
0.197091
0.209797
0.222504
0.239445
0.256387
0.290271
0.311448
0.2818
0.214033
0.150501
0.0827342
0.0276736
-0.0104454
-0.0400934
-0.0739769
-0.103625
-0.137508
-0.167157
-0.188334
-0.205276
-0.222217
-0.234924
-0.24763
-0.256101
-0.268807
-0.277278
-0.285749
-0.29422
-0.306926
-0.319632
-0.328103
-0.328103
-0.323868
-0.311161
-0.298455
-0.281513
-0.264572
-0.243394
-0.217982
-0.196805
-0.179863
-0.150215
-0.124802
-0.184098
-0.243394
-0.285749
-0.302691
-0.281513
-0.24763
-0.217982
-0.196805
-0.175627
-0.15445
-0.137508
-0.124802
-0.112096
-0.10786
-0.0951541
-0.0866833
-0.0739769
-0.0697415
-0.0655061
-0.0655061
-0.0655061
-0.0612706
-0.0655061
-0.0697415
-0.0782124
-0.0909187
-0.10786
-0.120567
-0.133273
-0.150215
-0.188334
-0.209511
-0.20104
-0.171392
-0.0782124
0.0827342
0.319919
0.603693
0.878996
1.02724
1.023
0.849348
0.438511
-0.0909187
-0.641526
-1.07354
-1.20484
-1.24719
-1.18366
-1.11166
-1.06083
-1.00577
-0.942242
-0.836356
-0.705057
-0.620348
-0.569523
-0.527169
-0.493285
-0.378928
-0.217982
-0.103625
-0.0570352
-0.0612706
-0.129038
-0.175627
-0.217982
-0.251865
-0.273043
-0.273043
-0.24763
-0.217982
-0.184098
-0.162921
-0.137508
-0.112096
-0.0909187
-0.0824478
-0.0739769
-0.0697415
-0.0655061
-0.0612706
-0.0527998
-0.0443289
-0.035858
-0.035858
-0.0400934
-0.0527998
-0.0655061
-0.0782124
-0.0951541
-0.129038
-0.133273
-0.0951541
-0.0739769
-0.0612706
-0.0485643
-0.035858
-0.0273871
-0.0189162
-0.00620994
0.00649637
0.0192027
0.0361444
0.0530862
0.0742634
0.129324
0.218268
0.260623
0.290271
0.298742
0.286035
0.256387
0.214033
0.133559
0.0700279
0.031909
-0.0019745
-0.0273871
-0.0400934
-0.0527998
-0.0655061
-0.0782124
-0.0909187
-0.103625
-0.116331
-0.133273
-0.150215
-0.167157
-0.184098
-0.20104
-0.217982
-0.230688
-0.243394
-0.264572
-0.298455
-0.332339
-0.370458
-0.417047
-0.472108
-0.510227
-0.531404
-0.552581
-0.565288
-0.577994
-0.582229
-0.577994
-0.569523
-0.561052
-0.548346
-0.531404
-0.518698
-0.497521
-0.472108
-0.44246
-0.412812
-0.391635
-0.374693
-0.357751
-0.34928
-0.336574
-0.323868
-0.315397
-0.302691
-0.29422
-0.277278
-0.251865
-0.234924
-0.234924
-0.256101
-0.281513
-0.306926
-0.340809
-0.357751
-0.340809
-0.298455
-0.188334
0.0530862
0.358038
0.667225
0.946764
1.11195
1.12465
1.01877
0.675695
0.116618
-0.577994
-1.19637
-1.59026
-1.66227
-1.64532
-1.49708
-1.3192
-1.17943
-1.08625
-1.03119
-0.946477
-0.764353
-0.531404
-0.336574
-0.256101
-0.226453
-0.213746
-0.205276
-0.196805
-0.188334
-0.179863
-0.171392
-0.158686
-0.150215
-0.145979
-0.158686
-0.188334
-0.213746
-0.230688
-0.24763
-0.264572
-0.277278
-0.289984
-0.29422
-0.29422
-0.289984
-0.277278
-0.268807
-0.256101
-0.24763
-0.230688
-0.205276
-0.184098
-0.15445
-0.120567
-0.0782124
-0.0527998
-0.035858
-0.0273871
-0.0146808
0.00649637
0.031909
0.0615571
0.0954406
0.129324
0.163208
0.197091
0.226739
0.247916
0.269093
0.290271
0.307212
0.319919
0.32839
0.332625
0.341096
0.358038
0.362273
0.349567
0.311448
0.252152
0.18862
0.108147
0.00226094
-0.112096
-0.150215
-0.167157
-0.175627
-0.171392
-0.141744
-0.112096
-0.0824478
-0.0570352
-0.035858
-0.0146808
0.0149672
0.0149672
-0.0146808
-0.0400934
-0.0697415
-0.0866833
-0.0951541
-0.103625
-0.112096
-0.116331
-0.116331
-0.112096
-0.103625
-0.0909187
-0.0739769
-0.0485643
-0.0527998
-0.0993896
-0.120567
-0.141744
-0.158686
-0.175627
-0.179863
-0.179863
-0.171392
-0.158686
-0.141744
-0.10786
-0.0697415
-0.0612706
-0.0527998
-0.0485643
-0.0400934
-0.035858
-0.0316226
-0.0231517
-0.00620994
0.00649637
0.0234381
0.0530862
0.0700279
0.0530862
0.0192027
-0.0231517
-0.0866833
-0.150215
-0.205276
-0.256101
-0.29422
-0.311161
-0.323868
-0.29422
-0.234924
-0.171392
-0.103625
-0.0400934
-0.00620994
0.0192027
0.0361444
0.0361444
0.0234381
0.00649637
-0.00620994
-0.0146808
-0.0231517
-0.0316226
-0.0400934
-0.0485643
-0.0612706
-0.0739769
-0.0824478
-0.0951541
-0.112096
-0.124802
-0.133273
-0.133273
-0.120567
-0.10786
-0.0824478
-0.00620994
0.116618
0.252152
0.408863
0.56981
0.722285
0.849348
0.929822
0.925586
0.840878
0.586751
0.218268
-0.196805
-0.594936
-0.933771
-1.1879
-1.38273
-1.48861
-1.5225
-1.45473
-1.25566
-0.899887
-0.476344
-0.0527998
0.175914
0.192856
0.0615571
-0.0782124
-0.124802
-0.0909187
-0.0570352
-0.0316226
-0.0189162
-0.0316226
-0.0739769
-0.188334
-0.340809
-0.429754
-0.459402
-0.425518
-0.383164
-0.345045
-0.311161
-0.273043
-0.217982
-0.112096
-0.0316226
-0.0019745
0.0149672
0.0276736
0.0361444
0.0446153
0.0615571
0.0784988
0.0403799
-0.0273871
-0.0655061
-0.0866833
-0.0655061
-0.0146808
0.0149672
0.0361444
0.0488507
0.0573216
0.0657925
0.0742634
0.0827342
0.0912051
0.103911
0.125089
0.150501
0.201326
0.243681
0.256387
0.264858
0.273329
0.273329
0.264858
0.247916
0.226739
0.180149
0.133559
0.112382
0.133559
0.184385
0.201326
0.214033
0.226739
0.230975
0.23521
0.230975
0.226739
0.218268
0.209797
0.192856
0.163208
0.108147
0.0530862
-0.0019745
-0.0400934
-0.0655061
-0.0909187
-0.120567
-0.167157
-0.213746
-0.234924
-0.24763
-0.256101
-0.260336
-0.260336
-0.260336
-0.256101
-0.251865
-0.239159
-0.222217
-0.171392
-0.0570352
-0.0019745
0.0573216
0.108147
0.129324
0.146266
0.154737
0.158972
0.154737
0.137795
0.112382
0.0700279
0.0107318
-0.035858
-0.10786
-0.162921
-0.192569
-0.213746
-0.226453
-0.226453
-0.217982
-0.196805
-0.171392
-0.116331
-0.0485643
-0.00620994
0.0234381
-0.0019745
-0.0739769
-0.184098
-0.222217
-0.239159
-0.243394
-0.243394
-0.243394
-0.24763
-0.24763
-0.234924
-0.213746
-0.188334
-0.171392
-0.150215
-0.129038
-0.0993896
-0.00620994
0.180149
0.434276
0.722285
1.0103
1.21783
1.23054
1.0823
0.582516
-0.0909187
-0.760118
-1.23025
-1.42508
-1.44626
-1.36579
-1.2006
-1.02695
-0.882945
-0.721999
-0.467873
-0.179863
0.00226094
0.0615571
0.0234381
-0.035858
-0.0782124
-0.0993896
-0.112096
-0.0739769
-0.0443289
-0.0316226
-0.0146808
-0.0019745
0.0149672
0.031909
0.0446153
0.0573216
0.0742634
0.0912051
0.108147
0.120853
0.129324
0.14203
0.154737
0.171678
0.171678
0.146266
0.120853
0.0954406
0.14203
0.269093
0.336861
0.358038
0.370744
0.391921
0.413098
0.438511
0.459688
0.47663
0.493572
0.510513
0.518984
0.531691
0.544397
0.552868
0.565574
0.57828
0.595222
0.612164
0.633341
0.650283
0.662989
0.67146
0.679931
0.692637
0.709579
0.705344
0.667225
0.552868
0.468159
0.442746
0.425805
0.413098
0.408863
0.413098
0.417334
0.425805
0.434276
0.438511
0.446982
0.451217
0.459688
0.468159
0.472394
0.472394
0.472394
0.463924
0.455453
0.438511
0.425805
0.413098
0.396157
0.387686
0.374979
0.366509
0.358038
0.349567
0.341096
0.32839
0.315683
0.302977
0.294506
0.290271
0.286035
0.2818
0.277564
0.269093
0.256387
0.226739
0.192856
0.184385
0.175914
0.167443
0.167443
0.184385
0.209797
0.247916
0.290271
0.315683
0.332625
0.345331
0.362273
0.379215
0.404628
0.425805
0.442746
0.455453
0.472394
0.485101
0.493572
0.493572
0.480865
0.463924
0.446982
0.43004
0.421569
0.408863
0.396157
0.379215
0.362273
0.349567
0.341096
0.332625
0.324154
0.311448
0.290271
0.260623
0.264858
0.311448
0.362273
0.417334
0.468159
0.527455
0.599458
0.713814
0.862055
1.05688
1.24748
1.36184
1.40843
1.40419
1.33219
1.14159
0.773111
0.307212
-0.184098
-0.624584
-0.942242
-1.06083
-1.05236
-0.895652
-0.624584
-0.289984
0.0954406
0.387686
0.497807
0.493572
0.358038
0.201326
0.150501
0.120853
0.103911
0.0361444
-0.145979
-0.34928
-0.527169
-0.599171
-0.628819
-0.645761
-0.658467
-0.675409
-0.688115
-0.717763
-0.819414
-0.950713
-1.08625
-1.18366
-1.24719
-1.27261
-1.29378
-1.31072
-1.32343
-1.33614
-1.34884
-1.35731
-1.36579
-1.37849
-1.39543
-1.41661
-1.43355
-1.44202
-1.43779
-1.43355
-1.42508
-1.41238
-1.39967
-1.4039
-1.44202
-1.47591
-1.50979
-1.53944
-1.56485
-1.59026
-1.62415
-1.61991
-1.57756
-1.45896
-1.29378
-1.14978
-1.10319
-1.06507
-1.03542
-1.01848
-1.00577
-0.993067
-0.980361
-0.97189
-0.963419
-0.954948
-0.942242
-0.933771
-0.9253
-0.916829
-0.908358
-0.899887
-0.891416
-0.882945
-0.870239
-0.861768
-0.844827
-0.819414
-0.768589
-0.679645
-0.611878
-0.565288
-0.522933
-0.48905
-0.459402
-0.429754
-0.400106
-0.374693
-0.345045
-0.332339
-0.336574
-0.345045
-0.357751
-0.336574
-0.24763
-0.179863
-0.124802
-0.0866833
-0.0443289
0.00649637
0.0912051
0.167443
0.218268
0.243681
0.260623
0.2818
0.302977
0.298742
0.269093
0.218268
0.146266
0.0869697
0.0446153
0.0446153
0.0742634
0.120853
0.184385
0.294506
0.400392
0.434276
0.38345
0.226739
-0.0273871
-0.268807
-0.497521
-0.751647
-1.01001
-1.22178
-1.32343
-1.35731
-1.30225
-1.13284
-0.899887
-0.717763
-0.620348
-0.561052
-0.493285
-0.459402
-0.446695
-0.438225
-0.472108
-0.573759
-0.68388
-0.798237
-0.899887
-0.942242
-0.963419
-0.976125
-0.976125
-0.946477
-0.87871
-0.789766
-0.666938
-0.54411
-0.44246
-0.370458
-0.319632
-0.285749
-0.264572
-0.260336
-0.277278
-0.298455
-0.370458
-0.480579
-0.586465
-0.688115
-0.743176
-0.83212
-0.9253
-1.04389
-1.07354
-1.08201
-1.0566
-0.904123
-0.726234
-0.552581
-0.387399
-0.230688
-0.0782124
0.0784988
0.264858
0.417334
0.485101
0.518984
0.540161
0.552868
0.561339
0.565574
0.574045
0.582516
0.535926
0.480865
0.438511
0.438511
0.463924
0.493572
0.527455
0.56981
0.620635
0.684166
0.739227
0.773111
0.781581
0.790052
0.794288
0.756169
0.705344
0.662989
0.629106
0.595222
0.561339
0.527455
0.489336
0.438511
0.400392
0.370744
0.370744
0.408863
0.438511
0.463924
0.489336
0.510513
0.535926
0.574045
0.629106
0.662989
0.679931
0.701108
0.722285
0.747698
0.798523
0.849348
0.874761
0.891703
0.887467
0.845113
0.781581
0.709579
0.646047
0.590987
0.561339
0.544397
0.531691
0.527455
0.540161
0.552868
0.56981
0.590987
0.599458
0.586751
0.561339
0.531691
0.502043
0.480865
0.459688
0.442746
0.468159
0.544397
0.722285
0.989118
1.31525
1.67949
1.95056
1.9675
1.78538
1.2136
0.472394
-0.243394
-0.781295
-0.988831
-0.997302
-0.823649
-0.573759
-0.328103
-0.0527998
0.252152
0.506278
0.56981
0.586751
0.548632
0.510513
0.489336
0.468159
0.438511
0.404628
0.38345
0.366509
0.349567
0.336861
0.319919
0.307212
0.298742
0.290271
0.286035
0.277564
0.264858
0.252152
0.230975
0.205562
0.192856
0.205562
0.222504
0.239445
0.256387
0.264858
0.260623
0.247916
0.239445
0.230975
0.23521
0.260623
0.286035
0.307212
0.336861
0.370744
0.396157
0.417334
0.438511
0.446982
0.442746
0.43004
0.417334
0.408863
0.400392
0.391921
0.38345
0.374979
0.362273
0.345331
0.324154
0.298742
0.298742
0.336861
0.370744
0.404628
0.417334
0.400392
0.370744
0.341096
0.311448
0.2818
0.264858
0.243681
0.171678
0.0827342
0.0530862
0.0361444
0.0234381
0.0149672
0.0192027
0.0276736
0.0403799
0.0573216
0.0784988
0.108147
0.158972
0.197091
0.23521
0.277564
0.332625
0.38345
0.43004
0.438511
0.417334
0.396157
0.374979
0.374979
0.391921
0.413098
0.434276
0.387686
0.332625
0.286035
0.277564
0.290271
0.307212
0.324154
0.277564
0.252152
0.239445
0.230975
0.226739
0.222504
0.218268
0.214033
0.201326
0.18862
0.180149
0.171678
0.158972
0.150501
0.14203
0.129324
0.116618
0.0912051
0.0276736
0.0234381
0.0784988
0.163208
0.252152
0.290271
0.315683
0.32839
0.324154
0.311448
0.290271
0.230975
0.0869697
0.0361444
0.0192027
0.0107318
0.00226094
-0.0019745
-0.0019745
-0.00620994
-0.0019745
-0.0019745
0.00226094
0.0192027
0.0361444
0.0657925
0.175914
0.396157
0.67146
0.942528
1.095
1.09077
0.91288
0.455453
-0.133273
-0.705057
-1.14978
-1.34884
-1.41661
-1.44202
-1.42508
-1.37849
-1.23872
-0.904123
-0.527169
-0.196805
-0.0527998
-0.0104454
-0.0485643
-0.10786
-0.179863
-0.230688
-0.268807
-0.268807
-0.243394
-0.226453
-0.209511
-0.192569
-0.188334
-0.20104
-0.222217
-0.24763
-0.256101
-0.264572
-0.273043
-0.281513
-0.29422
-0.302691
-0.311161
-0.315397
-0.315397
-0.315397
-0.315397
-0.311161
-0.302691
-0.289984
-0.277278
-0.264572
-0.251865
-0.243394
-0.234924
-0.217982
-0.196805
-0.179863
-0.171392
-0.175627
-0.188334
-0.205276
-0.226453
-0.268807
-0.336574
-0.374693
-0.408576
-0.412812
-0.383164
-0.34928
-0.311161
-0.260336
-0.196805
-0.150215
-0.141744
-0.133273
-0.129038
-0.120567
-0.10786
-0.0951541
-0.0866833
-0.0739769
-0.0570352
-0.0400934
-0.0400934
-0.0527998
-0.0782124
-0.116331
-0.184098
-0.268807
-0.340809
-0.391635
-0.429754
-0.433989
-0.408576
-0.391635
-0.378928
-0.366222
-0.357751
-0.353516
-0.353516
-0.357751
-0.357751
-0.357751
-0.357751
-0.361987
-0.366222
-0.374693
-0.378928
-0.383164
-0.378928
-0.361987
-0.336574
-0.311161
-0.29422
-0.277278
-0.256101
-0.239159
-0.226453
-0.217982
-0.209511
-0.205276
-0.196805
-0.184098
-0.171392
-0.158686
-0.167157
-0.196805
-0.234924
-0.264572
-0.298455
-0.336574
-0.361987
-0.387399
-0.417047
-0.455166
-0.455166
-0.421283
-0.374693
-0.336574
-0.323868
-0.315397
-0.302691
-0.277278
-0.234924
-0.158686
-0.0951541
-0.0697415
-0.0485643
-0.0697415
-0.112096
-0.10786
-0.0612706
-0.0316226
-0.0316226
-0.0612706
-0.0909187
-0.120567
-0.124802
-0.10786
-0.0909187
-0.0697415
-0.0951541
-0.133273
-0.162921
-0.124802
-0.0782124
-0.0400934
-0.0231517
-0.00620994
0.0107318
0.0149672
0.00649637
-0.0146808
-0.0697415
-0.184098
-0.234924
-0.264572
-0.281513
-0.289984
-0.273043
-0.230688
-0.103625
0.0827342
0.341096
0.667225
1.01877
1.34913
1.60326
1.62867
1.51431
0.972176
0.180149
-0.662703
-1.3192
-1.53097
-1.53097
-1.33614
-1.14978
-1.01424
-0.840591
-0.658467
-0.476344
-0.311161
-0.150215
-0.0485643
-0.0273871
-0.0104454
0.00226094
0.0149672
0.0276736
0.0403799
0.0573216
0.0784988
0.108147
0.125089
0.112382
0.0784988
0.0149672
-0.035858
-0.0527998
-0.0612706
-0.0697415
-0.0697415
-0.0655061
-0.0570352
-0.0527998
-0.0485643
-0.0400934
-0.035858
-0.035858
-0.0443289
-0.0570352
-0.0824478
-0.0612706
-0.0019745
0.031909
0.0530862
0.0742634
0.0869697
0.108147
0.133559
0.154737
0.171678
0.18862
0.197091
0.205562
0.209797
0.218268
0.222504
0.23521
0.247916
0.264858
0.302977
0.353802
0.379215
0.396157
0.396157
0.358038
0.32839
0.298742
0.277564
0.260623
0.247916
0.23521
0.230975
0.230975
0.239445
0.252152
0.264858
0.2818
0.239445
0.209797
0.192856
0.184385
0.171678
0.158972
0.14203
0.125089
0.103911
0.0827342
0.0573216
0.031909
0.00649637
-0.0189162
-0.0316226
-0.0485643
-0.0612706
-0.0739769
-0.0866833
-0.103625
-0.116331
-0.124802
-0.124802
-0.124802
-0.116331
-0.112096
-0.103625
-0.0951541
-0.0824478
-0.0655061
-0.0443289
-0.035858
-0.0443289
-0.0739769
-0.103625
-0.129038
-0.162921
-0.184098
-0.184098
-0.171392
-0.15445
-0.141744
-0.129038
-0.112096
-0.0909187
-0.0655061
-0.0443289
-0.0273871
-0.00620994
0.0149672
0.0361444
0.0488507
0.0573216
0.0615571
0.0742634
0.0954406
0.0869697
0.0276736
-0.0146808
-0.0443289
-0.0782124
-0.10786
-0.129038
-0.15445
-0.213746
-0.298455
-0.340809
-0.366222
-0.387399
-0.391635
-0.387399
-0.366222
-0.340809
-0.298455
-0.222217
-0.0782124
0.0488507
0.0954406
0.120853
0.137795
0.146266
0.146266
0.146266
0.150501
0.158972
0.146266
0.133559
0.125089
0.120853
0.112382
0.099676
0.0784988
0.0573216
0.0361444
0.0107318
-0.0146808
-0.0146808
0.00226094
0.031909
0.116618
0.311448
0.540161
0.777346
1.01453
1.18818
1.19242
1.05265
0.616399
-0.00620994
-0.671174
-1.19213
-1.4039
-1.47591
-1.42508
-1.28531
-1.10319
-0.912594
-0.738941
-0.582229
-0.400106
-0.209511
-0.0570352
0.00226094
0.0361444
0.0615571
0.0573216
0.00649637
-0.0316226
-0.0782124
-0.103625
-0.120567
-0.129038
-0.137508
-0.141744
-0.150215
-0.15445
-0.158686
-0.158686
-0.158686
-0.150215
-0.141744
-0.133273
-0.124802
-0.116331
-0.10786
-0.0993896
-0.0909187
-0.0739769
-0.0570352
-0.0443289
-0.0316226
-0.0189162
0.00226094
0.0192027
0.031909
0.0403799
0.0446153
0.0488507
0.0615571
0.0784988
0.0827342
0.0700279
0.0530862
0.031909
0.0912051
0.146266
0.184385
0.214033
0.230975
0.243681
0.252152
0.269093
0.286035
0.298742
0.286035
0.260623
0.23521
0.209797
0.192856
0.197091
0.209797
0.222504
0.23521
0.239445
0.209797
0.158972
0.108147
0.0530862
0.0149672
-0.0189162
-0.0739769
-0.129038
-0.150215
-0.167157
-0.175627
-0.171392
-0.162921
-0.158686
-0.15445
-0.150215
-0.145979
-0.141744
-0.141744
-0.145979
-0.15445
-0.167157
-0.179863
-0.192569
-0.205276
-0.213746
-0.226453
-0.239159
-0.24763
-0.251865
-0.256101
-0.256101
-0.260336
-0.260336
-0.256101
-0.24763
-0.234924
-0.217982
-0.205276
-0.188334
-0.145979
-0.0527998
0.103911
0.336861
0.641812
0.967941
1.20089
1.27713
1.16277
0.8197
0.163208
-0.582229
-1.24296
-1.63262
-1.68768
-1.57756
-1.23449
-0.874475
-0.607642
-0.408576
-0.328103
-0.29422
-0.268807
-0.256101
-0.256101
-0.264572
-0.277278
-0.306926
-0.289984
-0.184098
-0.0993896
-0.0570352
-0.0316226
-0.0231517
-0.0189162
-0.035858
-0.0782124
-0.116331
-0.141744
-0.162921
-0.184098
-0.205276
-0.222217
-0.234924
-0.243394
-0.243394
-0.239159
-0.230688
-0.222217
-0.205276
-0.188334
-0.158686
-0.103625
-0.0443289
-0.0019745
0.0234381
0.0488507
0.0742634
0.103911
0.129324
0.146266
0.158972
0.171678
0.180149
0.192856
0.205562
0.214033
0.222504
0.230975
0.23521
0.239445
0.243681
0.247916
0.252152
0.256387
0.264858
0.2818
0.298742
0.302977
0.294506
0.273329
0.243681
0.201326
0.146266
0.099676
0.0530862
0.0107318
-0.0443289
-0.0824478
-0.10786
-0.133273
-0.145979
-0.15445
-0.15445
-0.150215
-0.137508
-0.120567
-0.103625
-0.0739769
-0.035858
-0.0655061
-0.162921
-0.289984
-0.332339
-0.285749
-0.234924
-0.188334
-0.184098
-0.196805
-0.226453
-0.222217
-0.129038
-0.0443289
-0.0146808
-0.0146808
-0.035858
-0.0697415
-0.0951541
-0.035858
0.0234381
0.0700279
0.112382
0.146266
0.252152
0.442746
0.662989
0.870526
1.04418
1.14583
1.17971
1.12889
0.976412
0.561339
-0.0316226
-0.692351
-1.28108
-1.68768
-1.83168
-1.70886
-1.38696
-0.993067
-0.662703
-0.476344
-0.408576
-0.340809
-0.222217
-0.0909187
-0.0316226
0.0192027
0.0488507
0.0149672
-0.0993896
-0.234924
-0.281513
-0.302691
-0.315397
-0.319632
-0.298455
-0.256101
-0.192569
-0.120567
-0.0866833
-0.0697415
-0.0527998
-0.0316226
-0.0104454
0.0234381
0.0742634
0.133559
0.0954406
0.0361444
-0.0316226
-0.0739769
-0.0993896
-0.116331
-0.124802
-0.124802
-0.116331
-0.0993896
-0.0739769
-0.0316226
0.0276736
0.0615571
0.0742634
0.0869697
0.099676
0.112382
0.129324
0.154737
0.214033
0.273329
0.290271
0.302977
0.311448
0.315683
0.315683
0.311448
0.294506
0.273329
0.239445
0.171678
0.112382
0.0784988
0.103911
0.129324
0.146266
0.154737
0.150501
0.14203
0.133559
0.125089
0.112382
0.0912051
0.0657925
0.0234381
-0.0273871
-0.0697415
-0.0697415
-0.0231517
0.00649637
-0.035858
-0.0655061
-0.0866833
-0.10786
-0.124802
-0.133273
-0.129038
-0.112096
-0.0909187
-0.0697415
-0.0400934
-0.0019745
0.00226094
-0.0146808
-0.0316226
-0.0443289
-0.0443289
-0.035858
-0.0316226
-0.0273871
-0.0231517
-0.0189162
-0.0231517
-0.035858
-0.0612706
-0.0993896
-0.162921
-0.222217
-0.273043
-0.298455
-0.319632
-0.319632
-0.289984
-0.24763
-0.192569
-0.15445
-0.133273
-0.103625
-0.0782124
-0.0527998
-0.0273871
-0.0104454
-0.0231517
-0.0400934
-0.0782124
-0.133273
-0.192569
-0.264572
-0.34928
-0.408576
-0.438225
-0.463637
-0.459402
-0.417047
-0.298455
-0.10786
0.133559
0.408863
0.658754
0.832407
0.857819
0.794288
0.493572
0.031909
-0.472108
-0.874475
-1.09895
-1.15401
-1.17519
-1.14131
-1.08625
-1.03542
-0.976125
-0.87871
-0.819414
-0.751647
-0.68388
-0.603407
-0.531404
-0.472108
-0.429754
-0.400106
-0.323868
-0.213746
-0.175627
-0.162921
-0.15445
-0.150215
-0.162921
-0.188334
-0.226453
-0.285749
-0.336574
-0.370458
-0.366222
-0.323868
-0.289984
-0.264572
-0.239159
-0.217982
-0.196805
-0.15445
-0.0993896
-0.0527998
-0.0146808
0.0192027
0.0361444
-0.0019745
-0.0316226
-0.0485643
-0.0655061
-0.0739769
-0.0824478
-0.0824478
-0.0866833
-0.0866833
-0.0951541
-0.0739769
-0.0316226
-0.0189162
-0.00620994
0.00649637
0.0192027
0.0276736
0.0488507
0.116618
0.239445
0.315683
0.341096
0.353802
0.353802
0.336861
0.315683
0.294506
0.273329
0.252152
0.230975
0.205562
0.180149
0.163208
0.14203
0.116618
0.099676
0.0700279
0.0234381
-0.0316226
-0.0655061
-0.0866833
-0.103625
-0.120567
-0.141744
-0.179863
-0.217982
-0.234924
-0.243394
-0.24763
-0.251865
-0.251865
-0.251865
-0.24763
-0.239159
-0.230688
-0.222217
-0.209511
-0.196805
-0.171392
-0.150215
-0.137508
-0.129038
-0.116331
-0.0993896
-0.103625
-0.124802
-0.141744
-0.150215
-0.158686
-0.167157
-0.175627
-0.184098
-0.196805
-0.209511
-0.222217
-0.239159
-0.260336
-0.289984
-0.306926
-0.289984
-0.256101
-0.205276
-0.129038
0.00649637
0.201326
0.497807
0.828171
1.095
1.23477
1.24324
1.15006
0.870526
0.434276
-0.124802
-0.751647
-1.31496
-1.66227
-1.71309
-1.63685
-1.49285
-1.34037
-1.19213
-1.04389
-0.827885
-0.53564
-0.175627
0.133559
0.2818
0.332625
0.362273
0.370744
0.366509
0.349567
0.315683
0.205562
0.0742634
-0.0697415
-0.10786
-0.116331
-0.120567
-0.124802
-0.133273
-0.150215
-0.171392
-0.192569
-0.213746
-0.230688
-0.243394
-0.239159
-0.222217
-0.188334
-0.137508
-0.0655061
0.00226094
0.0361444
0.0403799
0.0488507
0.0573216
0.0827342
0.125089
0.150501
0.175914
0.201326
0.218268
0.222504
0.222504
0.214033
0.205562
0.192856
0.184385
0.171678
0.184385
0.230975
0.273329
0.302977
0.332625
0.353802
0.379215
0.463924
0.565574
0.599458
0.590987
0.535926
0.446982
0.353802
0.277564
0.192856
0.108147
0.0276736
-0.116331
-0.29422
-0.34928
-0.357751
-0.366222
-0.370458
-0.370458
-0.353516
-0.328103
-0.285749
-0.222217
-0.120567
0.0149672
0.154737
0.201326
0.226739
0.239445
0.201326
0.150501
0.099676
0.0530862
-0.0146808
-0.0697415
-0.0993896
-0.112096
-0.120567
-0.133273
-0.150215
-0.167157
-0.184098
-0.209511
-0.24763
-0.251865
-0.226453
-0.188334
-0.141744
-0.0612706
0.0403799
0.0912051
0.112382
0.125089
0.133559
0.137795
0.133559
0.120853
0.099676
0.099676
0.171678
0.311448
0.510513
0.751933
1.01453
1.2263
1.23901
1.09924
0.595222
-0.0951541
-0.768589
-1.26413
-1.45049
-1.45896
-1.3192
-1.11589
-0.967654
-0.891416
-0.781295
-0.616113
-0.429754
-0.306926
-0.260336
-0.260336
-0.285749
-0.306926
-0.332339
-0.34928
-0.366222
-0.387399
-0.404341
-0.366222
-0.298455
-0.226453
-0.150215
-0.0739769
0.00226094
0.0742634
0.14203
0.192856
0.214033
0.230975
0.23521
0.222504
0.192856
0.146266
0.0869697
0.0446153
0.0107318
-0.0273871
-0.120567
-0.24763
-0.336574
-0.370458
-0.332339
-0.273043
-0.209511
-0.141744
-0.0655061
0.0149672
0.0954406
0.180149
0.226739
0.243681
0.247916
0.260623
0.277564
0.302977
0.324154
0.345331
0.362273
0.370744
0.366509
0.349567
0.32839
0.298742
0.260623
0.226739
0.197091
0.167443
0.137795
0.108147
0.0657925
0.00649637
-0.0316226
-0.0527998
-0.0655061
-0.0782124
-0.0909187
-0.0993896
-0.10786
-0.120567
-0.129038
-0.124802
-0.112096
-0.0951541
-0.0782124
-0.112096
-0.171392
-0.226453
-0.251865
-0.264572
-0.277278
-0.289984
-0.302691
-0.328103
-0.328103
-0.260336
-0.15445
-0.116331
-0.103625
-0.0951541
-0.0866833
-0.0739769
-0.0612706
-0.0400934
-0.0231517
-0.0570352
-0.103625
-0.141744
-0.167157
-0.192569
-0.234924
-0.306926
-0.370458
-0.412812
-0.412812
-0.383164
-0.29422
-0.20104
-0.162921
-0.133273
-0.103625
-0.0739769
-0.035858
-0.00620994
0.0192027
0.0361444
0.0361444
0.0276736
0.0107318
-0.0019745
-0.0231517
-0.0443289
-0.0782124
-0.0993896
-0.116331
-0.133273
-0.145979
-0.15445
-0.162921
-0.171392
-0.175627
-0.179863
-0.188334
-0.205276
-0.213746
-0.196805
-0.158686
-0.124802
-0.0909187
-0.0570352
-0.0316226
0.0149672
0.0657925
0.099676
0.125089
0.0827342
0.0446153
0.0192027
0.00226094
-0.00620994
-0.0104454
-0.0146808
-0.0273871
-0.0316226
0.00649637
0.133559
0.324154
0.52322
0.730756
0.929822
1.04841
1.04418
0.891703
0.463924
-0.145979
-0.781295
-1.27261
-1.51826
-1.55638
-1.48861
-1.30225
-1.13284
-0.993067
-0.815179
-0.594936
-0.319632
-0.0739769
0.0530862
0.0954406
0.0488507
-0.035858
-0.0866833
-0.103625
-0.116331
-0.0909187
-0.0443289
0.00649637
0.0615571
0.0954406
0.116618
0.125089
0.0912051
-0.0146808
-0.10786
-0.137508
-0.15445
-0.167157
-0.167157
-0.158686
-0.145979
-0.124802
-0.0951541
-0.0316226
0.0192027
0.0573216
0.0573216
0.0403799
0.0192027
-0.0019745
0.0192027
0.0403799
0.0615571
0.0615571
0.0276736
-0.0189162
-0.0527998
-0.035858
-0.0189162
-0.0019745
-0.0316226
-0.0782124
-0.112096
-0.0824478
-0.0316226
0.0276736
0.0912051
0.14203
0.180149
0.209797
0.247916
0.277564
0.302977
0.336861
0.374979
0.421569
0.463924
0.43004
0.400392
0.379215
0.358038
0.341096
0.324154
0.256387
0.125089
-0.0612706
-0.184098
-0.222217
-0.205276
-0.184098
-0.171392
-0.15445
-0.141744
-0.124802
-0.0655061
0.0657925
0.0912051
0.0912051
0.0954406
0.0954406
0.0954406
0.0784988
0.0530862
0.0192027
-0.0485643
-0.137508
-0.196805
-0.226453
-0.24763
-0.217982
-0.162921
-0.0993896
-0.035858
0.0149672
0.0488507
0.0700279
0.0827342
0.0869697
0.0827342
0.0615571
0.031909
-0.0146808
-0.0909187
-0.141744
-0.179863
-0.196805
-0.179863
-0.145979
-0.120567
-0.0909187
-0.0697415
-0.0612706
-0.0485643
-0.035858
-0.0231517
-0.0189162
-0.0316226
-0.0443289
-0.0570352
-0.0655061
-0.0400934
-0.0019745
0.0361444
0.0742634
0.099676
0.0954406
0.0657925
0.0234381
-0.0146808
-0.0527998
-0.0951541
-0.129038
-0.158686
-0.192569
-0.217982
-0.226453
-0.230688
-0.239159
-0.251865
-0.256101
-0.234924
-0.196805
-0.158686
-0.120567
-0.0866833
-0.0570352
-0.035858
-0.0273871
-0.0104454
0.00226094
0.0192027
0.0361444
0.0488507
0.0700279
0.112382
0.175914
0.269093
0.400392
0.582516
0.785817
0.950999
1.00606
0.917115
0.658754
0.0615571
-0.68388
-1.3319
-1.65803
-1.70462
-1.59873
-1.32767
-1.00154
-0.654232
-0.374693
-0.251865
-0.209511
-0.209511
-0.24763
-0.29422
-0.328103
-0.273043
-0.179863
-0.112096
-0.0909187
-0.0824478
-0.0782124
-0.0739769
-0.0697415
-0.0612706
-0.0485643
-0.035858
-0.0231517
-0.00620994
0.0234381
0.0446153
0.0446153
0.0234381
-0.0146808
-0.0655061
-0.124802
-0.141744
-0.150215
-0.15445
-0.162921
-0.167157
-0.171392
-0.167157
-0.15445
-0.137508
-0.116331
-0.0951541
-0.0655061
-0.0231517
0.0149672
0.0446153
0.0869697
0.163208
0.214033
0.239445
0.256387
0.273329
0.286035
0.294506
0.298742
0.302977
0.311448
0.324154
0.319919
0.277564
0.209797
0.137795
0.0784988
0.0149672
-0.0824478
-0.184098
-0.222217
-0.222217
-0.184098
-0.141744
-0.0951541
-0.0570352
-0.0316226
-0.0104454
0.00226094
-0.0019745
-0.0273871
-0.0697415
-0.141744
-0.260336
-0.323868
-0.34928
-0.370458
-0.387399
-0.400106
-0.404341
-0.404341
-0.39587
-0.383164
-0.361987
-0.345045
-0.328103
-0.311161
-0.285749
-0.256101
-0.230688
-0.213746
-0.213746
-0.213746
-0.222217
-0.230688
-0.243394
-0.24763
-0.260336
-0.273043
-0.29422
-0.319632
-0.34928
-0.412812
-0.467873
-0.484814
-0.497521
-0.505992
-0.505992
-0.493285
-0.467873
-0.425518
-0.361987
-0.273043
-0.239159
-0.217982
-0.205276
-0.192569
-0.188334
-0.188334
-0.20104
-0.217982
-0.239159
-0.268807
-0.319632
-0.345045
-0.366222
-0.383164
-0.39587
-0.400106
-0.391635
-0.361987
-0.323868
-0.285749
-0.234924
-0.20104
-0.175627
-0.158686
-0.145979
-0.133273
-0.120567
-0.116331
-0.116331
-0.129038
-0.15445
-0.175627
-0.196805
-0.217982
-0.243394
-0.273043
-0.298455
-0.311161
-0.302691
-0.281513
-0.256101
-0.239159
-0.226453
-0.213746
-0.20104
-0.188334
-0.175627
-0.162921
-0.150215
-0.141744
-0.137508
-0.129038
-0.120567
-0.112096
-0.112096
-0.10786
-0.0993896
-0.0443289
0.0912051
0.353802
0.688402
1.03994
1.30678
1.39148
1.27713
0.950999
0.362273
-0.264572
-0.713528
-0.827885
-0.806708
-0.675409
-0.594936
-0.556817
-0.53564
-0.505992
-0.459402
-0.378928
-0.24763
-0.141744
-0.0739769
-0.0400934
-0.0443289
-0.0570352
-0.0739769
-0.0951541
-0.0909187
-0.0443289
-0.0019745
0.0530862
0.116618
0.154737
0.184385
0.205562
0.218268
0.214033
0.209797
0.205562
0.201326
0.192856
0.184385
0.184385
0.180149
0.175914
0.171678
0.171678
0.171678
0.184385
0.197091
0.214033
0.23521
0.252152
0.269093
0.294506
0.319919
0.345331
0.353802
0.358038
0.366509
0.374979
0.396157
0.387686
0.315683
0.273329
0.23521
0.205562
0.18862
0.180149
0.18862
0.201326
0.218268
0.239445
0.286035
0.379215
0.451217
0.502043
0.518984
0.52322
0.527455
0.531691
0.540161
0.544397
0.548632
0.544397
0.527455
0.502043
0.463924
0.400392
0.290271
0.218268
0.167443
0.125089
0.0827342
0.0192027
-0.0782124
-0.15445
-0.20104
-0.230688
-0.243394
-0.251865
-0.264572
-0.277278
-0.285749
-0.260336
-0.20104
-0.133273
-0.0527998
-0.0104454
0.0149672
0.031909
0.0488507
0.0573216
0.0657925
0.0657925
0.0615571
0.0488507
0.031909
0.00649637
-0.0189162
-0.0485643
-0.103625
-0.133273
-0.150215
-0.158686
-0.167157
-0.171392
-0.175627
-0.179863
-0.184098
-0.188334
-0.188334
-0.184098
-0.179863
-0.179863
-0.175627
-0.175627
-0.167157
-0.162921
-0.158686
-0.15445
-0.150215
-0.145979
-0.141744
-0.133273
-0.129038
-0.124802
-0.120567
-0.116331
-0.10786
-0.0951541
-0.0824478
-0.0697415
-0.0527998
-0.0316226
-0.0146808
0.0192027
0.0530862
0.0784988
0.108147
0.214033
0.362273
0.565574
0.806994
1.04841
1.12889
1.07806
0.934057
0.47663
-0.0951541
-0.620348
-0.988831
-1.10319
-1.14131
-1.09895
-0.976125
-0.794001
-0.561052
-0.374693
-0.319632
-0.285749
-0.264572
-0.24763
-0.226453
-0.179863
-0.0909187
-0.0189162
0.031909
0.0276736
-0.0316226
-0.120567
-0.196805
-0.226453
-0.243394
-0.256101
-0.260336
-0.260336
-0.24763
-0.226453
-0.20104
-0.175627
-0.150215
-0.120567
-0.0824478
-0.035858
0.00226094
0.0446153
0.0784988
0.116618
0.150501
0.175914
0.201326
0.222504
0.23521
0.247916
0.260623
0.277564
0.294506
0.302977
0.302977
0.294506
0.2818
0.269093
0.256387
0.243681
0.239445
0.230975
0.222504
0.209797
0.201326
0.197091
0.197091
0.201326
0.201326
0.201326
0.197091
0.192856
0.18862
0.180149
0.175914
0.171678
0.163208
0.154737
0.14203
0.133559
0.120853
0.103911
0.0912051
0.0615571
-0.0019745
-0.0485643
-0.0866833
-0.10786
-0.129038
-0.145979
-0.162921
-0.171392
-0.179863
-0.184098
-0.184098
-0.175627
-0.167157
-0.158686
-0.150215
-0.141744
-0.129038
-0.112096
-0.0951541
-0.0782124
-0.0697415
-0.0739769
-0.0782124
-0.0866833
-0.0909187
-0.0951541
-0.0993896
-0.10786
-0.116331
-0.116331
-0.103625
-0.0782124
-0.0485643
-0.0273871
0.00649637
0.0361444
0.0488507
0.0403799
0.0149672
-0.0189162
-0.0485643
-0.0951541
-0.133273
-0.167157
-0.192569
-0.209511
-0.226453
-0.243394
-0.256101
-0.264572
-0.268807
-0.256101
-0.234924
-0.205276
-0.175627
-0.145979
-0.10786
-0.0739769
-0.0527998
-0.035858
-0.0231517
-0.00620994
0.00649637
0.00226094
-0.0316226
-0.0612706
-0.0824478
-0.0951541
-0.112096
-0.133273
-0.145979
-0.158686
-0.167157
-0.175627
-0.179863
-0.184098
-0.188334
-0.192569
-0.196805
-0.196805
-0.205276
-0.226453
-0.243394
-0.226453
-0.196805
-0.179863
-0.167157
-0.15445
-0.141744
-0.129038
-0.116331
-0.103625
-0.0866833
-0.0612706
-0.0273871
0.116618
0.319919
0.548632
0.832407
1.12465
1.32795
1.33642
1.1543
0.662989
0.0107318
-0.628819
-1.14978
-1.38273
-1.45896
-1.3912
-1.19637
-0.916829
-0.645761
-0.484814
-0.408576
-0.361987
-0.323868
-0.277278
-0.213746
-0.120567
-0.0697415
-0.0485643
-0.0316226
-0.0231517
-0.0189162
-0.0146808
-0.0231517
-0.035858
-0.0527998
-0.0739769
-0.0951541
-0.116331
-0.145979
-0.171392
-0.192569
-0.192569
-0.179863
-0.162921
-0.137508
-0.10786
-0.0570352
-0.00620994
0.0192027
0.0276736
0.0361444
0.0446153
0.0530862
0.0615571
0.0742634
0.0912051
0.103911
0.112382
0.120853
0.129324
0.14203
0.158972
0.175914
0.230975
0.315683
0.345331
0.358038
0.370744
0.379215
0.387686
0.387686
0.387686
0.379215
0.370744
0.353802
0.32839
0.290271
0.230975
0.197091
0.180149
0.167443
0.154737
0.146266
0.14203
0.14203
0.154737
0.171678
0.18862
0.214033
0.252152
0.205562
0.163208
0.129324
0.112382
0.116618
0.125089
0.14203
0.158972
0.137795
0.116618
0.103911
0.0869697
0.0784988
0.0700279
0.0361444
-0.0485643
-0.0739769
-0.0909187
-0.10786
-0.112096
-0.112096
-0.10786
-0.0951541
-0.0824478
-0.0739769
-0.0612706
-0.0400934
-0.0316226
-0.035858
-0.0612706
-0.0866833
-0.116331
-0.120567
-0.0866833
-0.0019745
0.108147
0.260623
0.463924
0.705344
0.942528
1.04841
0.942528
0.586751
0.0192027
-0.607642
-1.14978
-1.46744
-1.51826
-1.45896
-1.17519
-0.849062
-0.5907
-0.48905
-0.459402
-0.44246
-0.425518
-0.412812
-0.39587
-0.383164
-0.370458
-0.353516
-0.323868
-0.281513
-0.209511
-0.175627
-0.15445
-0.133273
-0.120567
-0.103625
-0.0951541
-0.0866833
-0.0782124
-0.0739769
-0.0697415
-0.0697415
-0.0655061
-0.0655061
-0.0655061
-0.0612706
-0.0570352
-0.0527998
-0.0527998
-0.0570352
-0.0697415
-0.0824478
-0.0993896
-0.10786
-0.129038
-0.145979
-0.150215
-0.137508
-0.10786
-0.0655061
0.00226094
0.0869697
0.163208
0.209797
0.243681
0.247916
0.23521
0.222504
0.209797
0.205562
0.214033
0.226739
0.239445
0.230975
0.184385
0.154737
0.129324
0.108147
0.0954406
0.0912051
0.0954406
0.108147
0.120853
0.137795
0.158972
0.197091
0.201326
0.154737
0.0869697
0.00649637
-0.0443289
-0.0782124
-0.0951541
-0.103625
-0.120567
-0.137508
-0.124802
-0.10786
-0.0951541
-0.137508
-0.175627
-0.196805
-0.213746
-0.234924
-0.24763
-0.264572
-0.281513
-0.306926
-0.311161
-0.285749
-0.264572
-0.24763
-0.226453
-0.209511
-0.188334
-0.150215
-0.112096
-0.103625
-0.0951541
-0.0909187
-0.0866833
-0.0909187
-0.0993896
-0.112096
-0.124802
-0.141744
-0.141744
-0.124802
-0.0739769
0.031909
0.201326
0.455453
0.790052
1.13736
1.36607
1.36184
1.12465
0.527455
-0.188334
-0.823649
-1.20484
-1.32343
-1.23449
-1.11589
-1.04813
-0.9253
-0.77706
-0.645761
-0.582229
-0.48905
-0.374693
-0.277278
-0.243394
-0.239159
-0.268807
-0.306926
-0.336574
-0.34928
-0.357751
-0.323868
-0.268807
-0.205276
-0.150215
-0.116331
-0.0909187
-0.0697415
-0.0527998
-0.0316226
-0.0231517
-0.0316226
-0.0612706
-0.0909187
-0.124802
-0.129038
-0.103625
-0.0782124
-0.0527998
-0.0739769
-0.112096
-0.116331
-0.0443289
0.00649637
0.0276736
0.0361444
0.0361444
0.0234381
0.0192027
0.0107318
0.00226094
0.00226094
0.00226094
0.0107318
0.0234381
0.0361444
0.0530862
0.0742634
0.099676
0.129324
0.175914
0.214033
0.23521
0.252152
0.218268
0.192856
0.175914
0.158972
0.146266
0.146266
0.146266
0.154737
0.163208
0.171678
0.180149
0.197091
0.192856
0.171678
0.150501
0.133559
0.112382
0.0912051
0.0234381
-0.10786
-0.251865
-0.378928
-0.438225
-0.472108
-0.493285
-0.505992
-0.501756
-0.484814
-0.450931
-0.39587
-0.353516
-0.345045
-0.336574
-0.336574
-0.357751
-0.366222
-0.374693
-0.378928
-0.383164
-0.391635
-0.39587
-0.404341
-0.412812
-0.429754
-0.446695
-0.484814
-0.54411
-0.586465
-0.611878
-0.573759
-0.505992
-0.446695
-0.378928
-0.289984
-0.234924
-0.184098
-0.15445
-0.141744
-0.129038
-0.137508
-0.234924
-0.340809
-0.404341
-0.472108
-0.505992
-0.514462
-0.518698
-0.522933
-0.522933
-0.527169
-0.522933
-0.514462
-0.501756
-0.48905
-0.472108
-0.446695
-0.408576
-0.374693
-0.336574
-0.302691
-0.281513
-0.268807
-0.260336
-0.251865
-0.24763
-0.234924
-0.226453
-0.217982
-0.209511
-0.196805
-0.179863
-0.141744
-0.0782124
-0.0443289
-0.0273871
-0.0189162
-0.0189162
-0.0316226
-0.0570352
-0.10786
-0.150215
-0.167157
-0.150215
-0.0273871
0.18862
0.472394
0.802759
1.12042
1.27713
1.26019
1.00606
0.438511
-0.273043
-0.938006
-1.36579
-1.48861
-1.48438
-1.33614
-1.15401
-0.993067
-0.83212
-0.624584
-0.433989
-0.251865
-0.179863
-0.15445
-0.184098
-0.230688
-0.268807
-0.230688
-0.171392
-0.103625
-0.0316226
0.031909
0.0912051
0.125089
0.129324
0.133559
0.137795
0.137795
0.129324
0.125089
0.137795
0.150501
0.158972
0.163208
0.163208
0.158972
0.150501
0.133559
0.112382
0.0742634
0.0107318
-0.0782124
-0.196805
-0.273043
-0.302691
-0.302691
-0.260336
-0.150215
-0.035858
0.00649637
0.0361444
0.0700279
0.133559
0.222504
0.260623
0.264858
0.269093
0.269093
0.2818
0.307212
0.353802
0.396157
0.413098
0.43004
0.425805
0.38345
0.319919
0.247916
0.197091
0.163208
0.167443
0.205562
0.247916
0.290271
0.319919
0.358038
0.391921
0.413098
0.425805
0.387686
0.319919
0.243681
0.167443
0.099676
0.0361444
-0.00620994
-0.0231517
-0.0316226
-0.035858
-0.0400934
-0.0485643
-0.0527998
-0.0570352
-0.0612706
-0.0655061
-0.0655061
-0.0612706
-0.0485643
-0.0316226
-0.0019745
0.0573216
0.125089
0.18862
0.226739
0.252152
0.264858
0.269093
0.264858
0.247916
0.230975
0.214033
0.192856
0.167443
0.133559
0.099676
0.0742634
0.0446153
0.0192027
0.00226094
-0.00620994
-0.0104454
-0.0146808
-0.0146808
-0.0189162
-0.0231517
-0.0273871
-0.0273871
-0.0231517
-0.00620994
0.0107318
0.031909
0.0488507
