0.0573216
0.112382
0.167443
0.180149
0.163208
0.14203
0.125089
0.108147
0.0954406
0.0784988
0.0742634
0.0827342
0.112382
0.14203
0.180149
0.239445
0.243681
0.18862
0.0954406
0.0446153
0.0361444
0.031909
0.0234381
0.0149672
0.0107318
0.0192027
0.0403799
0.0573216
0.0869697
0.125089
0.125089
0.0784988
0.0488507
0.0234381
0.00649637
-0.00620994
-0.0146808
-0.0146808
-0.0104454
0.00649637
0.031909
0.0657925
0.116618
0.197091
0.230975
0.264858
0.290271
0.256387
0.230975
0.218268
0.209797
0.197091
0.192856
0.192856
0.201326
0.209797
0.226739
0.239445
0.260623
0.286035
0.302977
0.315683
0.32839
0.345331
0.370744
0.404628
0.451217
0.552868
0.633341
0.637577
0.637577
0.646047
0.667225
0.692637
0.705344
0.713814
0.730756
0.747698
0.751933
0.751933
0.747698
0.747698
0.747698
0.739227
0.726521
0.701108
0.67146
0.637577
0.599458
0.535926
0.497807
0.468159
0.43004
0.374979
0.269093
0.197091
0.154737
0.112382
0.0827342
0.0657925
0.0615571
0.0573216
0.0488507
0.0234381
-0.0019745
0.0234381
0.0530862
0.0742634
0.0912051
0.0573216
-0.00620994
-0.0612706
-0.124802
-0.15445
-0.133273
-0.0866833
-0.0316226
0.0530862
0.197091
0.442746
0.768875
1.2263
1.79385
2.32328
2.75106
3.08142
3.2932
3.36943
3.42026
3.38638
3.14072
2.76377
2.35293
1.95903
1.60326
1.27713
0.929822
0.603693
0.319919
0.0361444
-0.188334
-0.323868
-0.429754
-0.501756
-0.501756
-0.438225
-0.408576
-0.391635
-0.378928
-0.366222
-0.353516
-0.340809
-0.319632
-0.302691
-0.289984
-0.277278
-0.260336
-0.243394
-0.226453
-0.196805
-0.150215
-0.124802
-0.137508
-0.162921
-0.184098
-0.209511
-0.20104
-0.15445
-0.120567
-0.103625
-0.0866833
-0.0739769
-0.0570352
-0.035858
-0.0146808
0.0107318
0.031909
0.0488507
0.0573216
0.0657925
0.0784988
0.0912051
0.108147
0.133559
0.167443
0.209797
0.103911
0.031909
-0.0104454
-0.0443289
-0.0697415
-0.0866833
-0.0866833
-0.0697415
-0.0443289
-0.0189162
0.0149672
0.0700279
0.154737
0.171678
0.129324
0.0869697
0.0361444
0.0361444
0.108147
0.158972
0.197091
0.226739
0.247916
0.269093
0.290271
0.315683
0.353802
0.43004
0.561339
0.696873
0.832407
0.938293
1.00606
1.06112
1.10771
1.13736
1.16277
1.18395
1.20089
1.22207
1.24748
1.27289
1.2983
1.33642
1.39148
1.4169
1.37878
1.29407
1.21783
1.13736
1.095
1.07383
1.04418
1.00182
0.946764
0.895938
0.853584
0.857819
0.91288
0.976412
1.03571
0.938293
0.768875
0.650283
0.612164
0.586751
0.565574
0.535926
0.502043
0.463924
0.413098
0.408863
0.434276
0.468159
0.497807
0.404628
0.32839
0.2818
0.243681
0.218268
0.201326
0.18862
0.180149
0.167443
0.154737
0.146266
0.133559
0.120853
0.112382
0.099676
0.0869697
0.0742634
0.0573216
0.0403799
0.0149672
-0.0189162
-0.0612706
-0.120567
-0.209511
-0.298455
-0.417047
-0.565288
-0.734705
-0.87871
-0.942242
-0.976125
-0.997302
-1.01424
-1.03542
-1.06083
-1.08201
-1.09895
-1.12013
-1.14554
-1.1879
-1.25566
-1.29802
-1.32343
-1.34037
-1.34884
-1.35308
-1.36155
-1.36579
-1.37002
-1.36579
-1.34884
-1.3319
-1.31496
-1.29802
-1.28531
-1.28108
-1.27684
-1.27684
-1.27261
-1.26837
-1.2599
-1.24719
-1.23025
-1.21331
-1.2006
-1.19213
-1.1879
-1.17519
-1.15825
-1.13707
-1.09472
-1.01848
-0.967654
-0.942242
-0.916829
-0.891416
-0.870239
-0.857533
-0.861768
-0.87871
-0.895652
-0.912594
-0.921064
-0.938006
-0.959183
-0.976125
-0.980361
-0.97189
-0.954948
-0.933771
-0.912594
-0.895652
-0.874475
-0.844827
-0.823649
-0.815179
-0.827885
-0.853297
-0.887181
-0.916829
-0.950713
-1.01001
-1.06507
-1.11589
-1.17943
-1.24296
-1.27684
-1.3319
-1.31072
-1.25143
-1.23872
-1.23449
-1.22178
-1.21331
-1.2006
-1.18366
-1.16672
-1.15401
-1.13284
-1.11166
-1.07778
-1.03542
-0.823649
-0.34928
0.125089
0.57828
1.00606
1.39996
1.71761
1.94209
2.0268
2.11998
1.93362
1.49737
0.989118
0.574045
0.260623
-0.0316226
-0.34928
-0.671174
-0.954948
-1.23449
-1.51403
-1.74274
-1.86557
-1.98416
-2.08581
-2.16628
-2.21711
-2.14511
-2.03498
-1.91216
-1.70462
-1.55214
-1.49708
-1.47591
-1.50132
-1.53944
-1.56485
-1.5945
-1.61568
-1.62838
-1.61568
-1.58603
-1.54367
-1.46744
-1.34461
-1.27261
-1.23449
-1.20484
-1.17519
-1.14978
-1.13284
-1.12437
-1.10742
-1.02695
-0.810943
-0.696586
-0.649996
-0.633055
-0.620348
-0.607642
-0.594936
-0.582229
-0.573759
-0.565288
-0.561052
-0.556817
-0.552581
-0.548346
-0.539875
-0.531404
-0.510227
-0.480579
-0.480579
-0.514462
-0.552581
-0.586465
-0.577994
-0.514462
-0.476344
-0.450931
-0.433989
-0.417047
-0.408576
-0.408576
-0.408576
-0.417047
-0.425518
-0.433989
-0.44246
-0.455166
-0.476344
-0.48905
-0.493285
-0.484814
-0.463637
-0.433989
-0.391635
-0.315397
-0.192569
-0.129038
-0.0951541
-0.0655061
-0.0400934
-0.0189162
0.00226094
0.031909
0.0700279
0.108147
0.154737
0.218268
0.290271
0.345331
0.396157
0.438511
0.472394
0.502043
0.518984
0.535926
0.552868
0.582516
0.612164
0.629106
0.62487
0.612164
0.595222
0.574045
0.557103
0.531691
0.510513
0.510513
0.535926
0.57828
0.620635
0.679931
0.722285
0.747698
0.76464
0.785817
0.802759
0.8197
0.836642
0.870526
0.904409
0.934057
0.967941
0.997589
1.0103
0.993353
0.950999
0.908645
0.874761
0.840878
0.802759
0.781581
0.785817
0.811229
0.849348
0.921351
1.02724
1.10771
1.16277
1.10347
1.04841
1.00182
0.980647
1.0103
1.06959
1.11618
1.15854
1.19665
1.2263
1.25171
1.28983
1.33642
1.27289
1.16277
1.04418
0.963705
0.917115
0.862055
0.815465
0.768875
0.71805
0.692637
0.730756
0.802759
0.857819
0.921351
0.963705
0.976412
0.984882
0.993353
0.997589
1.00606
1.00182
0.972176
0.942528
0.908645
0.904409
0.938293
0.963705
0.989118
1.00606
1.0103
1.00182
0.984882
0.967941
0.955234
0.934057
0.921351
0.921351
0.950999
0.984882
1.01877
1.05265
1.095
1.13312
1.16701
1.20089
1.2263
1.25171
1.26866
1.2856
1.2983
1.30678
1.30678
1.30254
1.29407
1.28136
1.26442
1.23901
1.2136
1.17124
1.12465
1.05688
0.972176
0.870526
0.794288
0.705344
0.557103
0.438511
0.374979
0.332625
0.302977
0.277564
0.256387
0.226739
0.184385
0.184385
0.23521
0.286035
0.341096
0.336861
0.252152
0.154737
0.0488507
-0.0273871
-0.0739769
-0.116331
-0.141744
-0.145979
-0.133273
-0.103625
-0.0146808
0.192856
0.463924
0.781581
1.10347
1.46349
1.91244
2.4207
2.93742
3.39485
3.62356
3.63203
3.46261
3.06025
2.61976
2.21739
1.92938
1.72608
1.48043
1.10347
0.692637
0.298742
-0.0231517
-0.251865
-0.459402
-0.582229
-0.789766
-0.954948
-1.01424
-1.00577
-0.9253
-0.853297
-0.794001
-0.738941
-0.700822
-0.666938
-0.628819
-0.582229
-0.548346
-0.518698
-0.501756
-0.48905
-0.480579
-0.476344
-0.472108
-0.467873
-0.459402
-0.459402
-0.463637
-0.472108
-0.484814
-0.497521
-0.510227
-0.518698
-0.531404
-0.539875
-0.548346
-0.552581
-0.548346
-0.53564
-0.514462
-0.48905
-0.463637
-0.429754
-0.374693
-0.370458
-0.404341
-0.433989
-0.450931
-0.463637
-0.48905
-0.522933
-0.569523
-0.666938
-0.77706
-0.827885
-0.853297
-0.891416
-0.946477
-1.03966
-1.11589
-1.16248
-1.13284
-1.00154
-0.861768
-0.760118
-0.700822
-0.658467
-0.645761
-0.662703
-0.696586
-0.747411
-0.844827
-0.938006
-0.967654
-0.984596
-1.00154
-1.00577
-0.97189
-0.916829
-0.823649
-0.692351
-0.624584
-0.5907
-0.556817
-0.518698
-0.476344
-0.438225
-0.39587
-0.361987
-0.323868
-0.289984
-0.260336
-0.226453
-0.162921
-0.0527998
0.0107318
0.0530862
0.0869697
0.103911
0.103911
0.0869697
0.0615571
0.0361444
0.0192027
0.00226094
-0.0189162
-0.035858
-0.0527998
-0.0655061
-0.0782124
-0.0866833
-0.0951541
-0.103625
-0.112096
-0.120567
-0.141744
-0.171392
-0.116331
-0.0316226
0.0657925
0.150501
0.209797
0.256387
0.307212
0.349567
0.286035
0.180149
0.0954406
0.0488507
0.0149672
0.0869697
0.158972
0.205562
0.247916
0.277564
0.302977
0.332625
0.366509
0.391921
0.396157
0.370744
0.341096
0.315683
0.294506
0.2818
0.269093
0.256387
0.239445
0.222504
0.201326
0.18862
0.175914
0.163208
0.146266
0.129324
0.116618
0.112382
0.129324
0.158972
0.201326
0.23521
0.269093
0.311448
0.353802
0.391921
0.417334
0.434276
0.446982
0.459688
0.47663
0.497807
0.52322
0.574045
0.629106
0.667225
0.696873
0.722285
0.743463
0.756169
0.760404
0.756169
0.743463
0.726521
0.705344
0.67146
0.612164
0.489336
0.421569
0.387686
0.362273
0.336861
0.324154
0.319919
0.324154
0.332625
0.345331
0.362273
0.370744
0.379215
0.391921
0.400392
0.408863
0.417334
0.417334
0.413098
0.408863
0.396157
0.38345
0.366509
0.345331
0.311448
0.2818
0.264858
0.273329
0.290271
0.315683
0.332625
0.349567
0.362273
0.362273
0.341096
0.294506
0.239445
0.18862
0.125089
0.0573216
0.00226094
-0.0443289
-0.0824478
-0.120567
-0.15445
-0.184098
-0.205276
-0.209511
-0.20104
-0.188334
-0.171392
-0.158686
-0.141744
-0.116331
-0.0993896
-0.10786
-0.124802
-0.150215
-0.175627
-0.116331
0.0657925
0.307212
0.637577
1.06959
1.59479
2.14116
2.70023
3.22543
3.6405
3.76756
3.74639
3.51344
3.1026
2.61553
2.11151
1.57784
1.17548
0.963705
0.853584
0.751933
0.62487
0.362273
0.133559
-0.0443289
-0.239159
-0.48905
-0.743176
-0.874475
-0.959183
-1.01424
-1.03542
-1.04389
-1.05236
-1.06083
-1.07354
-1.07778
-1.0693
-1.03966
-0.993067
-0.908358
-0.819414
-0.781295
-0.747411
-0.743176
-0.768589
-0.78553
-0.798237
-0.815179
-0.83212
-0.83212
-0.815179
-0.789766
-0.764353
-0.751647
-0.738941
-0.726234
-0.709293
-0.696586
-0.688115
-0.688115
-0.700822
-0.721999
-0.747411
-0.764353
-0.789766
-0.83212
-0.870239
-0.874475
-0.844827
-0.806708
-0.772824
-0.734705
-0.705057
-0.696586
-0.709293
-0.743176
-0.781295
-0.849062
-0.976125
-1.05236
-1.09895
-1.1286
-1.14554
-1.14554
-1.13707
-1.12013
-1.10319
-1.08625
-1.0693
-1.04389
-1.01424
-0.980361
-0.946477
-0.912594
-0.87871
-0.836356
-0.789766
-0.73047
-0.675409
-0.633055
-0.5907
-0.54411
-0.505992
-0.472108
-0.450931
-0.433989
-0.412812
-0.383164
-0.336574
-0.264572
-0.150215
-0.0570352
0.0192027
0.0784988
0.112382
0.133559
0.146266
0.154737
0.167443
0.180149
0.197091
0.209797
0.214033
0.201326
0.184385
0.163208
0.14203
0.125089
0.108147
0.0869697
0.0700279
0.0573216
0.0488507
0.0403799
0.0403799
0.0403799
0.0403799
0.0488507
0.0615571
0.0742634
0.0827342
0.0912051
0.0954406
0.099676
0.108147
0.116618
0.125089
0.133559
0.14203
0.150501
0.163208
0.171678
0.180149
0.180149
0.175914
0.167443
0.150501
0.133559
0.112382
0.0912051
0.0530862
0.031909
0.0573216
0.108147
0.137795
0.163208
0.184385
0.205562
0.226739
0.243681
0.260623
0.277564
0.298742
0.319919
0.349567
0.370744
0.38345
0.374979
0.341096
0.294506
0.252152
0.218268
0.175914
0.133559
0.0954406
0.0742634
0.0615571
0.0530862
0.0446153
0.031909
0.0149672
-0.00620994
-0.0189162
-0.0231517
-0.0189162
-0.0019745
0.0149672
0.0361444
0.0657925
0.112382
0.14203
0.099676
0.0149672
-0.035858
-0.0909187
-0.137508
-0.162921
-0.162921
-0.141744
-0.116331
-0.0866833
-0.0400934
0.0361444
0.133559
0.184385
0.218268
0.243681
0.264858
0.2818
0.302977
0.324154
0.349567
0.366509
0.387686
0.404628
0.43004
0.455453
0.47663
0.502043
0.52322
0.544397
0.561339
0.582516
0.603693
0.62487
0.637577
0.658754
0.692637
0.71805
0.71805
0.675695
0.612164
0.540161
0.434276
0.345331
0.290271
0.247916
0.214033
0.192856
0.18862
0.205562
0.23521
0.264858
0.2818
0.298742
0.311448
0.324154
0.32839
0.341096
0.353802
0.358038
0.353802
0.345331
0.32839
0.311448
0.290271
0.273329
0.247916
0.209797
0.175914
0.171678
0.201326
0.252152
0.391921
0.641812
0.917115
1.21783
1.58631
2.06915
2.65364
3.27625
3.8438
4.04287
4.02169
3.6998
3.24661
2.81036
2.45458
2.27669
2.13269
1.9548
1.57784
1.11618
0.67146
0.247916
-0.0739769
-0.260336
-0.446695
-0.607642
-0.671174
-0.700822
-0.726234
-0.743176
-0.755882
-0.764353
-0.764353
-0.760118
-0.755882
-0.743176
-0.73047
-0.713528
-0.696586
-0.675409
-0.658467
-0.645761
-0.633055
-0.628819
-0.620348
-0.611878
-0.599171
-0.5907
-0.582229
-0.573759
-0.556817
-0.54411
-0.531404
-0.522933
-0.518698
-0.514462
-0.510227
-0.505992
-0.493285
-0.480579
-0.463637
-0.446695
-0.421283
-0.378928
-0.328103
-0.285749
-0.239159
-0.192569
-0.133273
-0.0570352
-0.0570352
-0.145979
-0.24763
-0.345045
-0.404341
-0.44246
-0.476344
-0.514462
-0.548346
-0.577994
-0.624584
-0.671174
-0.594936
-0.514462
-0.455166
-0.429754
-0.44246
-0.472108
-0.497521
-0.518698
-0.539875
-0.561052
-0.577994
-0.603407
-0.628819
-0.666938
-0.692351
-0.649996
-0.561052
-0.484814
-0.408576
-0.336574
-0.277278
-0.222217
-0.141744
-0.035858
0.0446153
0.0912051
0.116618
0.133559
0.146266
0.158972
0.167443
0.184385
0.205562
0.230975
0.256387
0.2818
0.307212
0.332625
0.358038
0.387686
0.417334
0.455453
0.493572
0.531691
0.557103
0.56981
0.56981
0.552868
0.527455
0.497807
0.472394
0.455453
0.438511
0.417334
0.387686
0.358038
0.336861
0.324154
0.324154
0.32839
0.336861
0.345331
0.358038
0.374979
0.400392
0.425805
0.438511
0.442746
0.451217
0.451217
0.446982
0.442746
0.442746
0.442746
0.446982
0.455453
0.468159
0.497807
0.485101
0.387686
0.353802
0.341096
0.324154
0.302977
0.2818
0.264858
0.252152
0.247916
0.239445
0.23521
0.23521
0.230975
0.230975
0.23521
0.239445
0.23521
0.23521
0.226739
0.218268
0.209797
0.197091
0.18862
0.180149
0.171678
0.167443
0.167443
0.163208
0.154737
0.14203
0.120853
0.0700279
0.0276736
0.0276736
0.0530862
0.0827342
0.0954406
0.099676
0.103911
0.112382
0.120853
0.129324
0.133559
0.133559
0.133559
0.14203
0.146266
0.150501
0.154737
0.154737
0.158972
0.163208
0.175914
0.18862
0.197091
0.201326
0.205562
0.209797
0.218268
0.23521
0.256387
0.2818
0.298742
0.319919
0.358038
0.408863
0.459688
0.506278
0.557103
0.599458
0.637577
0.688402
0.734992
0.756169
0.739227
0.684166
0.607929
0.514749
0.379215
0.23521
0.14203
0.0657925
0.00226094
-0.0316226
-0.0316226
-0.0189162
0.00226094
0.0192027
0.0446153
0.0657925
0.0784988
0.0742634
0.0657925
0.0488507
0.0276736
-0.0146808
-0.0697415
-0.00620994
0.0446153
0.0742634
0.099676
0.116618
0.125089
0.125089
0.116618
0.099676
0.0869697
0.0657925
0.0361444
-0.0146808
-0.00620994
0.0954406
0.247916
0.442746
0.768875
1.17548
1.68373
2.21316
2.68753
3.06025
3.17884
3.23814
3.19578
2.87389
2.45458
2.03104
1.64985
1.45078
1.13736
0.845113
0.514749
0.0488507
-0.429754
-0.806708
-1.16248
-1.27261
-1.32343
-1.26837
-1.1286
-1.04813
-1.00154
-0.993067
-1.01001
-1.03119
-1.0566
-1.09048
-1.07354
-0.938006
-0.853297
-0.789766
-0.734705
-0.696586
-0.68388
-0.700822
-0.743176
-0.794001
-0.844827
-0.87871
-0.912594
-0.946477
-0.984596
-1.01848
-1.04389
-1.0566
-1.04389
-1.02271
-0.993067
-0.963419
-0.933771
-0.899887
-0.857533
-0.806708
-0.751647
-0.692351
-0.633055
-0.573759
-0.518698
-0.459402
-0.391635
-0.328103
-0.273043
-0.226453
-0.175627
-0.120567
-0.0570352
0.00649637
0.0657925
0.120853
0.171678
0.214033
0.252152
0.286035
0.319919
0.358038
0.396157
0.438511
0.480865
0.514749
0.557103
0.595222
0.629106
0.646047
0.641812
0.629106
0.607929
0.57828
0.540161
0.493572
0.421569
0.396157
0.391921
0.387686
0.387686
0.413098
0.548632
0.629106
0.692637
0.743463
0.781581
0.798523
0.798523
0.773111
0.734992
0.692637
0.658754
0.633341
0.612164
0.590987
0.574045
0.565574
0.557103
0.544397
0.518984
0.485101
0.446982
0.408863
0.370744
0.341096
0.311448
0.2818
0.247916
0.222504
0.197091
0.175914
0.158972
0.133559
0.108147
0.0784988
0.0488507
0.0192027
-0.0019745
-0.0273871
-0.0443289
-0.0612706
-0.0612706
-0.0527998
-0.0400934
-0.0273871
-0.00620994
0.0107318
0.0234381
0.0403799
0.0615571
0.0827342
0.099676
0.112382
0.120853
0.129324
0.137795
0.150501
0.167443
0.180149
0.18862
0.18862
0.18862
0.180149
0.167443
0.146266
0.120853
0.0954406
0.0700279
0.0488507
0.031909
0.0276736
0.0234381
0.0192027
0.0107318
0.00226094
-0.0104454
-0.0231517
-0.035858
-0.0485643
-0.0655061
-0.0866833
-0.10786
-0.124802
-0.133273
-0.141744
-0.141744
-0.145979
-0.145979
-0.15445
-0.167157
-0.179863
-0.196805
-0.217982
-0.239159
-0.264572
-0.29422
-0.323868
-0.34928
-0.374693
-0.39587
-0.412812
-0.429754
-0.44246
-0.455166
-0.463637
-0.476344
-0.510227
-0.552581
-0.586465
-0.5907
-0.561052
-0.505992
-0.429754
-0.315397
-0.167157
-0.158686
-0.15445
-0.150215
-0.133273
-0.116331
-0.103625
-0.0951541
-0.0951541
-0.0993896
-0.112096
-0.133273
-0.162921
-0.205276
-0.251865
-0.302691
-0.353516
-0.391635
-0.412812
-0.433989
-0.450931
-0.472108
-0.48905
-0.505992
-0.522933
-0.539875
-0.561052
-0.582229
-0.603407
-0.620348
-0.628819
-0.628819
-0.624584
-0.624584
-0.624584
-0.624584
-0.624584
-0.620348
-0.620348
-0.620348
-0.620348
-0.624584
-0.633055
-0.63729
-0.645761
-0.666938
-0.675409
-0.63729
-0.522933
-0.213746
0.201326
0.692637
1.22207
1.7642
2.27669
2.4927
2.60705
2.69176
2.67906
2.51388
2.26398
1.93786
1.60749
1.36184
1.2263
1.11618
0.967941
0.561339
0.120853
-0.289984
-0.726234
-0.916829
-1.00577
-1.07354
-1.10319
-1.06507
-0.997302
-0.97189
-0.950713
-0.933771
-0.921064
-0.916829
-0.921064
-0.916829
-0.908358
-0.895652
-0.887181
-0.87871
-0.870239
-0.857533
-0.849062
-0.83212
-0.815179
-0.798237
-0.781295
-0.760118
-0.738941
-0.717763
-0.696586
-0.679645
-0.654232
-0.624584
-0.594936
-0.565288
-0.539875
-0.527169
-0.527169
-0.527169
-0.531404
-0.53564
-0.539875
-0.552581
-0.565288
-0.577994
-0.599171
-0.616113
-0.63729
-0.654232
-0.675409
-0.700822
-0.726234
-0.751647
-0.768589
-0.794001
-0.819414
-0.844827
-0.874475
-0.912594
-0.942242
-0.97189
-0.993067
-1.01001
-1.02271
-1.01848
-1.00154
-0.976125
-0.942242
-0.908358
-0.874475
-0.844827
-0.819414
-0.789766
-0.755882
-0.721999
-0.688115
-0.654232
-0.624584
-0.5907
-0.556817
-0.522933
-0.48905
-0.455166
-0.425518
-0.39587
-0.353516
-0.306926
-0.256101
-0.217982
-0.184098
-0.15445
-0.124802
-0.0909187
-0.0485643
-0.00620994
0.0446153
0.0912051
0.129324
0.154737
0.175914
0.192856
0.209797
0.222504
0.230975
0.226739
0.218268
0.205562
0.192856
0.171678
0.150501
0.133559
0.116618
0.103911
0.0912051
0.0827342
0.0742634
0.0700279
0.0615571
0.0530862
0.0488507
0.0446153
0.0488507
0.0530862
0.0615571
0.0700279
0.0742634
0.0742634
0.0700279
0.0615571
0.0530862
0.0446153
0.0276736
0.0107318
-0.0104454
-0.0273871
-0.035858
-0.0443289
-0.0527998
-0.0655061
-0.0739769
-0.0866833
-0.0993896
-0.112096
-0.124802
-0.141744
-0.162921
-0.184098
-0.20104
-0.213746
-0.222217
-0.230688
-0.234924
-0.239159
-0.239159
-0.234924
-0.230688
-0.222217
-0.213746
-0.20104
-0.188334
-0.175627
-0.158686
-0.141744
-0.129038
-0.112096
-0.103625
-0.0951541
-0.0866833
-0.0824478
-0.0782124
-0.0655061
-0.0527998
-0.0400934
-0.0316226
-0.0231517
-0.0146808
0.00226094
0.0234381
0.0530862
0.0784988
0.0954406
0.112382
0.125089
0.146266
0.167443
0.197091
0.226739
0.256387
0.298742
0.38345
0.47663
0.531691
0.565574
0.590987
0.620635
0.667225
0.692637
0.675695
0.62487
0.582516
0.531691
0.489336
0.489336
0.531691
0.582516
0.607929
0.620635
0.633341
0.650283
0.67146
0.696873
0.722285
0.730756
0.730756
0.722285
0.709579
0.696873
0.675695
0.654518
0.633341
0.607929
0.586751
0.56981
0.561339
0.548632
0.531691
0.514749
0.497807
0.485101
0.468159
0.455453
0.438511
0.421569
0.408863
0.408863
0.413098
0.425805
0.442746
0.455453
0.472394
0.493572
0.527455
0.561339
0.599458
0.688402
0.878996
1.18395
1.59479
2.12422
2.72988
3.31437
3.82686
4.02169
4.14452
4.12758
3.80992
3.33131
2.80189
2.35293
2.10304
1.86585
1.65408
1.33642
0.934057
0.493572
-0.0400934
-0.438225
-0.5907
-0.645761
-0.603407
-0.493285
-0.306926
-0.124802
-0.0527998
-0.0019745
0.0234381
-0.00620994
-0.0570352
-0.0739769
-0.0866833
-0.0993896
-0.112096
-0.124802
-0.141744
-0.162921
-0.179863
-0.192569
-0.196805
-0.20104
-0.196805
-0.188334
-0.175627
-0.162921
-0.150215
-0.133273
-0.124802
-0.120567
-0.124802
-0.124802
-0.124802
-0.120567
-0.112096
-0.103625
-0.0951541
-0.0866833
-0.0782124
-0.0655061
-0.0485643
-0.0316226
-0.0189162
-0.0146808
-0.0104454
-0.0146808
-0.0189162
-0.0231517
-0.0316226
-0.0485643
-0.0739769
-0.103625
-0.133273
-0.15445
-0.171392
-0.184098
-0.196805
-0.209511
-0.222217
-0.234924
-0.239159
-0.24763
-0.256101
-0.268807
-0.289984
-0.311161
-0.328103
-0.340809
-0.345045
-0.34928
-0.353516
-0.361987
-0.374693
-0.391635
-0.408576
-0.484814
-0.573759
-0.599171
-0.624584
-0.616113
-0.53564
-0.450931
-0.353516
-0.230688
-0.0993896
0.0107318
0.0615571
0.0827342
0.0954406
0.103911
0.108147
0.103911
0.108147
0.112382
0.116618
0.120853
0.120853
0.116618
0.116618
0.116618
0.116618
0.120853
0.125089
0.125089
0.125089
0.120853
0.120853
0.120853
0.116618
0.120853
0.125089
0.133559
0.146266
0.171678
0.192856
0.184385
0.158972
0.14203
0.129324
0.120853
0.108147
0.103911
0.108147
0.116618
0.129324
0.146266
0.163208
0.197091
0.252152
0.252152
0.18862
0.146266
0.112382
0.0827342
0.0615571
0.0573216
0.0742634
0.099676
0.133559
0.171678
0.214033
0.277564
0.336861
0.366509
0.391921
0.425805
0.463924
0.374979
0.319919
0.298742
0.2818
0.264858
0.252152
0.23521
0.222504
0.205562
0.184385
0.163208
0.14203
0.125089
0.108147
0.0912051
0.0700279
0.0276736
-0.0189162
-0.0485643
-0.0739769
-0.0951541
-0.116331
-0.15445
-0.179863
-0.15445
-0.0909187
-0.035858
0.0149672
0.0615571
0.0912051
0.108147
0.120853
0.133559
0.154737
0.175914
0.192856
0.201326
0.201326
0.192856
0.180149
0.163208
0.146266
0.125089
0.0827342
0.0869697
0.14203
0.175914
0.201326
0.226739
0.243681
0.252152
0.252152
0.239445
0.218268
0.192856
0.167443
0.129324
0.0657925
0.0573216
0.0954406
0.116618
0.133559
0.154737
0.167443
0.171678
0.167443
0.146266
0.116618
0.0869697
0.0530862
0.0149672
-0.0443289
-0.103625
-0.112096
-0.0739769
-0.0146808
0.0657925
0.163208
0.214033
0.256387
0.298742
0.286035
0.175914
0.099676
0.0361444
-0.0189162
-0.035858
-0.0273871
0.0149672
0.0869697
0.290271
0.641812
1.01877
1.40843
1.79809
2.1708
2.53505
2.89506
3.13225
3.21696
3.25084
3.22119
3.12801
2.86118
2.36987
1.86585
1.4169
1.02724
0.747698
0.506278
0.175914
-0.0993896
-0.277278
-0.408576
-0.48905
-0.53564
-0.556817
-0.565288
-0.586465
-0.611878
-0.54411
-0.493285
-0.467873
-0.446695
-0.433989
-0.425518
-0.417047
-0.412812
-0.404341
-0.391635
-0.374693
-0.361987
-0.353516
-0.34928
-0.345045
-0.336574
-0.323868
-0.311161
-0.298455
-0.289984
-0.281513
-0.268807
-0.256101
-0.243394
-0.230688
-0.222217
-0.209511
-0.192569
-0.175627
-0.158686
-0.141744
-0.133273
-0.133273
-0.137508
-0.141744
-0.15445
-0.171392
-0.192569
-0.217982
-0.24763
-0.315397
-0.44246
-0.505992
-0.548346
-0.582229
-0.599171
-0.5907
-0.565288
-0.54411
-0.53564
-0.531404
-0.522933
-0.518698
-0.518698
-0.514462
-0.510227
-0.505992
-0.501756
-0.493285
-0.480579
-0.467873
-0.459402
-0.459402
-0.450931
-0.438225
-0.421283
-0.400106
-0.374693
-0.340809
-0.302691
-0.230688
-0.15445
-0.0739769
-0.00620994
0.0234381
0.0488507
0.0742634
0.103911
0.129324
0.154737
0.175914
0.18862
0.201326
0.214033
0.222504
0.226739
0.218268
0.201326
0.184385
0.167443
0.154737
0.137795
0.120853
0.099676
0.0784988
0.0573216
0.0446153
0.031909
0.00649637
-0.0273871
-0.0612706
-0.0824478
-0.0866833
-0.0739769
-0.0570352
-0.0316226
-0.0146808
-0.0019745
0.0149672
0.0361444
0.0615571
0.0784988
0.0869697
0.0912051
0.0912051
0.0912051
0.0869697
0.0827342
0.0700279
0.0573216
0.0446153
0.0361444
0.0276736
0.0149672
0.00226094
-0.0104454
-0.0104454
0.0149672
0.0530862
0.099676
0.14203
0.171678
0.201326
0.239445
0.277564
0.307212
0.32839
0.324154
0.315683
0.307212
0.298742
0.294506
0.294506
0.294506
0.286035
0.277564
0.269093
0.273329
0.290271
0.319919
0.345331
0.366509
0.374979
0.38345
0.396157
0.413098
0.421569
0.43004
0.434276
0.446982
0.459688
0.472394
0.480865
0.480865
0.47663
0.463924
0.446982
0.43004
0.413098
0.391921
0.370744
0.349567
0.332625
0.319919
0.311448
0.307212
0.307212
0.307212
0.307212
0.307212
0.307212
0.302977
0.298742
0.290271
0.277564
0.269093
0.256387
0.247916
0.239445
0.23521
0.226739
0.218268
0.214033
0.209797
0.201326
0.18862
0.171678
0.150501
0.112382
0.0700279
0.0276736
-0.0231517
-0.0739769
-0.129038
-0.179863
-0.222217
-0.260336
-0.29422
-0.323868
-0.353516
-0.374693
-0.383164
-0.378928
-0.374693
-0.361987
-0.34928
-0.336574
-0.319632
-0.306926
-0.289984
-0.273043
-0.251865
-0.234924
-0.213746
-0.188334
-0.162921
-0.120567
-0.0655061
0.137795
0.463924
0.895938
1.39572
1.90397
2.39105
2.84424
3.09413
3.1746
3.09837
2.86118
2.48846
2.14963
2.01409
1.89974
1.61596
1.20936
0.768875
0.294506
-0.129038
-0.455166
-0.755882
-0.844827
-0.861768
-0.874475
-0.882945
-0.887181
-0.887181
-0.866004
-0.83212
-0.798237
-0.768589
-0.73047
-0.692351
-0.662703
-0.645761
-0.645761
-0.649996
-0.662703
-0.679645
-0.700822
-0.73047
-0.755882
-0.760118
-0.721999
-0.671174
-0.63729
-0.603407
-0.573759
-0.548346
-0.531404
-0.531404
-0.539875
-0.556817
-0.573759
-0.5907
-0.603407
-0.620348
-0.63729
-0.654232
-0.671174
-0.688115
-0.705057
-0.713528
-0.717763
-0.713528
-0.709293
-0.709293
-0.709293
-0.717763
-0.721999
-0.726234
-0.734705
-0.743176
-0.760118
-0.789766
-0.827885
-0.870239
-0.912594
-0.954948
-1.01848
-1.0693
-1.0693
-1.01848
-0.954948
-0.895652
-0.827885
-0.77706
-0.747411
-0.721999
-0.688115
-0.641526
-0.616113
-0.633055
-0.666938
-0.700822
-0.738941
-0.721999
-0.616113
-0.552581
-0.510227
-0.480579
-0.455166
-0.433989
-0.417047
-0.39587
-0.378928
-0.366222
-0.34928
-0.328103
-0.29422
-0.24763
-0.175627
-0.0655061
0.0530862
0.116618
0.167443
0.167443
0.120853
0.0657925
0.0149672
0.0657925
0.103911
0.125089
0.14203
0.158972
0.171678
0.184385
0.197091
0.209797
0.222504
0.243681
0.260623
0.2818
0.298742
0.324154
0.362273
0.442746
0.574045
0.696873
0.849348
1.03147
1.18395
1.39996
1.6329
1.90821
2.05221
2.14116
2.20045
2.22163
2.19198
2.13269
2.04374
1.91244
1.84044
1.80232
1.77267
1.75573
1.7515
1.7642
1.78962
1.82773
1.87432
1.92938
2.00986
2.07339
2.11574
2.1581
2.20045
2.22163
2.20045
2.14539
1.97597
1.6329
1.2136
0.756169
0.286035
-0.196805
-0.628819
-0.789766
-0.747411
-0.599171
-0.518698
-0.459402
-0.417047
-0.353516
-0.217982
0.103911
0.540161
0.900174
1.00606
1.03147
1.04418
1.04841
1.05688
1.07383
1.095
1.12042
1.14159
1.18395
1.25171
1.30254
1.34489
1.38725
1.45078
1.51431
1.57361
1.57784
1.54396
1.53125
1.51855
1.50161
1.48043
1.47196
1.47619
1.48466
1.49737
1.51008
1.51855
1.52702
1.54396
1.56937
1.59055
1.59055
1.5609
1.51855
1.48466
1.45925
1.44231
1.42113
1.39572
1.37454
1.36184
1.37031
1.39572
1.42537
1.45925
1.48043
1.49737
1.51855
1.54396
1.57361
1.59902
1.6202
1.62867
1.63714
1.64985
1.66679
1.67949
1.6922
1.69644
1.70491
1.71761
1.73455
1.7515
1.75997
1.7515
1.72185
1.68373
1.64985
1.62867
1.60749
1.58208
1.55243
1.53125
1.51431
1.50161
1.49737
1.50161
1.51008
1.51855
1.53125
1.54396
1.5609
1.57784
1.59479
1.60749
1.63714
1.66255
1.68373
1.68797
1.67102
1.64138
1.59902
1.52278
1.4169
1.37031
1.34066
1.31948
1.28983
1.26866
1.23901
1.20513
1.16277
1.11195
1.04841
0.950999
0.823936
0.722285
0.662989
0.692637
0.802759
0.993353
1.00182
0.853584
0.0742634
-1.57332
-4.17388
-7.38858
-10.5863
-12.9285
-13.7417
-13.7163
-12.7845
-11.6198
-10.7261
-9.99337
-9.54865
-9.3157
-9.10393
-8.85404
-8.7058
-8.65921
-8.61685
-8.5745
-8.52367
-8.35849
-8.11707
-7.85024
-7.59611
-7.38011
-7.24034
-7.08786
-6.92691
-6.75326
-6.60502
-6.50761
-6.4356
-6.38478
-6.26619
-6.06289
-5.82147
-5.61816
-5.55887
-5.51228
-5.47839
-5.44451
-5.30474
-5.10568
-4.99556
-4.91508
-4.85155
-4.76684
-4.64825
-4.51695
-4.42377
-4.35177
-4.27977
-4.212
-4.14423
-4.0807
-4.01717
-3.95787
-3.88587
-3.79269
-3.66139
-3.53856
-3.45386
-3.40303
-3.3395
-3.24632
-3.13196
-3.02184
-2.93713
-2.89054
-2.83548
-2.77619
-2.72536
-2.68724
-2.64912
-2.62371
-2.5983
-2.57289
-2.53053
-2.47123
-2.41194
-2.34841
-2.28911
-2.23829
-2.19593
-2.15781
-2.11969
-2.07734
-2.03075
-1.97569
-1.9291
-1.8698
-1.78933
-1.71309
-1.63262
-1.49708
-1.40814
-1.38273
-1.36579
-1.34884
-1.34461
-1.34461
-1.34461
-1.34461
-1.34461
-1.34461
-1.34461
-1.34884
-1.34884
-1.35731
-1.36155
-1.34461
-1.31496
-1.27261
-1.23025
-1.17096
-1.13284
-1.11166
-1.0693
-0.997302
-0.904123
-0.827885
-0.78553
-0.760118
-0.721999
-0.671174
-0.5907
-0.505992
-0.476344
-0.463637
-0.455166
-0.446695
-0.44246
-0.433989
-0.429754
-0.421283
-0.412812
-0.404341
-0.39587
-0.387399
-0.374693
-0.361987
-0.34928
-0.315397
-0.260336
-0.234924
-0.217982
-0.192569
-0.124802
-0.0739769
-0.0443289
-0.0273871
-0.0019745
0.0234381
0.0446153
0.0657925
0.0912051
0.125089
0.175914
0.214033
0.239445
0.2818
0.38345
0.493572
0.561339
0.607929
0.641812
0.667225
0.688402
0.701108
0.713814
0.722285
0.734992
0.747698
0.76464
0.781581
0.794288
0.811229
0.8197
0.828171
0.836642
0.840878
0.845113
0.845113
0.832407
0.815465
0.798523
0.781581
0.760404
0.743463
0.71805
0.688402
0.667225
0.654518
0.662989
0.679931
0.705344
0.739227
0.802759
0.891703
0.929822
0.955234
0.976412
1.00182
1.01877
1.05265
1.16701
1.32372
1.52278
1.77267
2.09033
2.48423
2.94165
3.44991
3.99628
4.53418
4.95349
5.07208
5.02125
4.65701
4.02169
3.35673
2.80189
2.40799
2.13692
1.78962
1.34913
0.963705
0.798523
0.701108
0.607929
0.514749
0.353802
0.171678
0.0869697
0.0573216
0.112382
0.277564
0.451217
0.607929
0.722285
0.756169
0.726521
0.641812
0.502043
0.358038
0.307212
0.311448
0.362273
0.413098
0.455453
0.493572
0.52322
0.544397
0.565574
0.57828
0.595222
0.607929
0.620635
0.629106
0.637577
0.650283
0.667225
0.747698
0.874761
0.908645
0.934057
0.946764
0.950999
0.946764
0.938293
0.921351
0.895938
0.857819
0.785817
0.71805
0.67146
0.701108
0.785817
0.929822
0.980647
0.984882
0.955234
0.938293
0.921351
0.908645
0.895938
0.878996
0.857819
0.828171
0.777346
0.722285
0.751933
0.785817
0.806994
0.832407
0.857819
0.883232
0.91288
0.946764
0.963705
0.946764
0.908645
0.849348
0.76464
0.701108
0.662989
0.667225
0.71805
0.794288
0.895938
1.00182
1.12042
1.25595
1.38725
1.53125
1.64561
1.72185
1.77267
1.70491
1.6202
1.53972
1.46349
1.38725
1.31525
1.28136
1.26442
1.25171
1.23901
1.2263
1.20513
1.18395
1.16277
1.14159
1.11618
1.08653
1.07383
1.095
1.14583
1.20513
1.2856
1.38725
1.42113
1.43807
1.45078
1.46772
1.48043
1.48043
1.45925
1.4296
1.39572
1.34489
1.26442
1.17548
1.05265
0.934057
0.862055
0.806994
0.756169
0.71805
0.688402
0.650283
0.595222
0.527455
0.438511
0.332625
0.277564
0.214033
0.133559
0.0784988
0.0403799
0.0276736
0.0615571
0.137795
0.260623
0.358038
0.396157
0.370744
0.260623
0.18862
0.125089
0.0869697
0.0573216
0.031909
0.0192027
0.0192027
0.0276736
0.0361444
0.0488507
0.0657925
0.0912051
0.031909
-0.0612706
-0.158686
-0.217982
-0.260336
-0.264572
-0.217982
-0.175627
-0.137508
-0.112096
-0.0951541
-0.0866833
-0.0697415
-0.0485643
-0.0824478
-0.112096
-0.129038
-0.145979
-0.15445
-0.145979
-0.133273
-0.10786
-0.0697415
0.0276736
0.137795
0.209797
0.218268
0.184385
0.0869697
-0.0909187
-0.264572
-0.332339
-0.408576
-0.463637
-0.514462
-0.539875
-0.505992
-0.438225
-0.378928
-0.311161
-0.273043
-0.311161
-0.39587
-0.467873
-0.552581
-0.5907
-0.573759
-0.518698
-0.374693
-0.188334
-0.0866833
-0.0273871
0.0149672
0.031909
0.00226094
-0.0655061
-0.264572
-0.467873
-0.675409
-0.751647
-0.794001
-0.768589
-0.565288
-0.29422
0.031909
0.400392
0.862055
1.39996
1.90397
2.33175
2.65788
2.79765
2.84424
2.77224
2.55623
2.2301
1.88703
1.57361
1.38725
1.29407
1.16701
0.929822
0.540161
0.0107318
-0.531404
-0.912594
-1.01001
-1.03542
-1.04813
-1.0566
-1.06083
-1.06083
-1.04813
-1.02695
-1.00154
-0.959183
-0.895652
-0.870239
-0.849062
-0.827885
-0.815179
-0.802472
-0.789766
-0.77706
-0.755882
-0.713528
-0.645761
-0.531404
-0.34928
-0.260336
-0.209511
-0.175627
-0.158686
-0.171392
-0.209511
-0.256101
-0.311161
-0.340809
-0.387399
-0.383164
-0.24763
-0.0866833
-0.0316226
-0.0400934
-0.116331
-0.184098
-0.24763
-0.289984
-0.323868
-0.378928
-0.44246
-0.48905
-0.484814
-0.361987
-0.175627
-0.0316226
-0.00620994
0.0234381
0.0488507
0.0657925
0.0784988
0.0827342
0.0869697
0.0869697
0.0827342
0.0700279
0.0615571
0.0488507
0.0276736
0.00226094
-0.0273871
-0.0527998
-0.103625
-0.20104
-0.243394
-0.264572
-0.281513
-0.302691
-0.315397
-0.306926
-0.277278
-0.230688
-0.158686
-0.0189162
0.0912051
0.14203
0.180149
0.226739
0.269093
0.307212
0.336861
0.358038
0.374979
0.396157
0.413098
0.434276
0.455453
0.47663
0.493572
0.52322
0.574045
0.574045
0.502043
0.451217
0.408863
0.366509
0.324154
0.290271
0.247916
0.158972
0.0657925
0.00649637
0.031909
0.133559
0.201326
0.205562
0.14203
0.0954406
0.0615571
0.0234381
-0.00620994
-0.0273871
-0.0400934
-0.0570352
-0.0909187
-0.137508
-0.0824478
-0.0316226
0.00649637
0.0361444
0.0361444
-0.0104454
-0.0697415
-0.133273
-0.209511
-0.289984
-0.366222
-0.44246
-0.514462
-0.577994
-0.628819
-0.666938
-0.713528
-0.764353
-0.827885
-0.899887
-0.97189
-1.04813
-1.09472
-1.11589
-1.12437
-1.13707
-1.14978
-1.15825
-1.15825
-1.16248
-1.15825
-1.14131
-1.10742
-1.0693
-1.01848
-0.912594
-0.713528
-0.510227
-0.366222
-0.260336
-0.256101
-0.417047
-0.768589
-1.27684
-1.89945
-2.539
-3.07267
-3.3395
-3.42421
-3.3395
-3.2082
-3.05572
-2.89901
-2.77619
-2.61947
-2.37382
-2.04769
-1.68344
-1.50132
-1.42932
-1.42085
-1.45473
-1.47591
-1.48861
-1.50555
-1.51826
-1.52673
-1.53097
-1.5352
-1.5352
-1.53944
-1.5352
-1.52673
-1.51403
-1.49708
-1.47591
-1.45473
-1.43355
-1.40814
-1.36579
-1.32767
-1.30649
-1.29378
-1.26413
-1.23449
-1.28108
-1.33614
-1.37426
-1.37002
-1.30225
-1.21331
-1.08625
-0.984596
-0.9253
-0.866004
-0.806708
-0.709293
-0.565288
-0.450931
-0.366222
-0.281513
-0.162921
-0.0104454
0.171678
0.353802
0.47663
0.561339
0.599458
0.586751
0.565574
0.552868
0.544397
0.540161
0.535926
0.531691
0.52322
0.518984
0.514749
0.502043
0.489336
0.47663
0.463924
0.455453
0.446982
0.434276
0.425805
0.408863
0.366509
0.311448
0.230975
0.180149
0.133559
0.0869697
0.0573216
0.0530862
0.0742634
0.116618
0.184385
0.307212
0.47663
0.535926
0.565574
0.590987
0.612164
0.629106
0.641812
0.654518
0.658754
0.667225
0.67146
0.67146
0.679931
0.684166
0.696873
0.722285
0.607929
0.417334
0.273329
0.226739
0.209797
0.197091
0.192856
0.180149
0.163208
0.137795
0.112382
0.0827342
0.0446153
-0.00620994
-0.120567
-0.298455
-0.39587
-0.459402
-0.539875
-0.641526
-0.709293
-0.764353
-0.815179
-0.849062
-0.866004
-0.870239
-0.87871
-0.882945
-0.882945
-0.882945
-0.887181
-0.891416
-0.895652
-0.904123
-0.908358
-0.908358
-0.908358
-0.904123
-0.899887
-0.895652
-0.887181
-0.866004
-0.840591
-0.815179
-0.78553
-0.755882
-0.68388
-0.497521
-0.319632
-0.192569
-0.0824478
-0.0273871
0.0149672
0.0488507
0.0742634
0.0869697
0.0827342
0.0615571
0.0276736
-0.00620994
-0.035858
-0.0866833
-0.124802
-0.124802
-0.0782124
-0.0189162
0.0488507
0.133559
0.205562
0.260623
0.319919
0.38345
0.417334
0.366509
0.273329
0.222504
0.180149
0.137795
0.099676
0.0700279
0.0488507
0.0361444
0.0276736
0.0192027
0.0192027
0.0234381
0.031909
0.0530862
0.0827342
0.116618
0.158972
0.324154
0.722285
1.23054
1.75573
2.19622
2.56047
2.82306
2.96707
3.20002
3.58968
4.07252
4.57653
5.00431
5.18644
5.28385
5.36432
5.45327
5.55068
5.64386
5.73704
5.78787
5.82599
5.85987
5.88105
5.89375
5.88952
5.88105
5.85987
5.83446
5.80057
5.76669
5.71163
5.63963
5.55068
5.41939
5.21185
4.96619
4.75442
4.55536
4.3817
4.25888
4.1657
4.06405
3.92428
3.78874
3.67862
3.57697
3.41179
3.15343
2.87812
2.69176
2.47576
2.27669
2.09033
1.91668
1.75573
1.56514
1.40843
1.31525
1.2263
1.15006
1.10347
1.06536
1.03571
1.00606
0.976412
0.942528
0.917115
0.878996
0.828171
0.713814
0.531691
0.374979
0.192856
0.0403799
-0.0527998
-0.141744
-0.217982
-0.328103
-0.505992
-0.675409
-0.794001
-0.904123
-1.01001
-1.11589
-1.20907
-1.24719
-1.26837
-1.28955
-1.31496
-1.3319
-1.34884
-1.35731
-1.36579
-1.37849
-1.38273
-1.3912
-1.39543
-1.39967
-1.39543
-1.39543
-1.4039
-1.43355
-1.44626
-1.42508
-1.36579
-1.19213
-0.908358
-0.472108
0.137795
0.874761
1.62443
2.30634
2.80189
2.96283
2.84424
2.47999
1.95903
1.46772
1.00606
0.654518
0.455453
0.120853
-0.239159
-0.649996
-1.13707
-1.61991
-1.90792
-1.95875
-2.0011
-2.03498
-2.0604
-2.08581
-2.10699
-2.12393
-2.14087
-2.14934
-2.15781
-2.16205
-2.16205
-2.15781
-2.15358
-2.14511
-2.12816
-2.11546
-2.10699
-2.09852
-2.08581
-2.06887
-2.04769
-2.02228
-1.99687
-1.97145
-1.95028
-1.92063
-1.85286
-1.77239
-1.70462
-1.64109
-1.58179
-1.53097
-1.47591
-1.42932
-1.3912
-1.37426
-1.36579
-1.36155
-1.36155
-1.36155
-1.35731
-1.35731
-1.35731
-1.36155
-1.36579
-1.36579
-1.36579
-1.37002
-1.37426
-1.37849
-1.38696
-1.39967
-1.4039
-1.4039
-1.40814
-1.41238
-1.41661
-1.41661
-1.41238
-1.39967
-1.38696
-1.37849
-1.37002
-1.36155
-1.34461
-1.32767
-1.30225
-1.28108
-1.2599
-1.23449
-1.20484
-1.14131
-1.0566
-0.980361
-0.904123
-0.83212
-0.760118
-0.688115
-0.616113
-0.548346
-0.484814
-0.433989
-0.400106
-0.366222
-0.332339
-0.302691
-0.273043
-0.24763
-0.226453
-0.205276
-0.184098
-0.162921
-0.133273
-0.0993896
-0.0570352
-0.0146808
0.0276736
0.0742634
0.112382
0.146266
0.180149
0.214033
0.243681
0.260623
0.273329
0.286035
0.290271
0.298742
0.315683
0.332625
0.336861
0.307212
0.247916
0.184385
0.14203
0.099676
0.0657925
0.0361444
0.0107318
-0.00620994
-0.0019745
0.0107318
0.0361444
0.0700279
0.108147
0.150501
0.209797
0.307212
0.358038
0.38345
0.400392
0.408863
0.417334
0.43004
0.442746
0.455453
0.468159
0.485101
0.502043
0.52322
0.548632
0.57828
0.612164
0.658754
0.747698
0.823936
0.895938
0.946764
0.993353
1.03571
1.06959
1.10347
1.12889
1.1543
1.17971
1.20513
1.23054
1.24324
1.2263
1.17971
1.11618
1.01453
0.853584
0.705344
0.544397
0.353802
0.18862
0.0446153
-0.103625
-0.192569
-0.243394
-0.277278
-0.298455
-0.298455
-0.277278
-0.239159
-0.192569
-0.133273
-0.0527998
-0.0231517
-0.00620994
0.0149672
0.0446153
0.0403799
-0.0189162
-0.0485643
-0.0697415
-0.0909187
-0.10786
-0.116331
-0.124802
-0.133273
-0.133273
-0.120567
-0.0951541
-0.0570352
-0.0273871
0.00226094
0.031909
0.0573216
0.0869697
0.116618
0.14203
0.158972
0.171678
0.180149
0.18862
0.18862
0.18862
0.18862
0.184385
0.175914
0.171678
0.163208
0.158972
0.154737
0.133559
0.201326
0.417334
0.688402
1.06959
1.58208
2.18351
2.79341
3.33555
3.74639
3.88616
3.77604
3.42873
2.81459
2.1581
1.56937
1.23054
1.11195
1.03571
0.980647
0.895938
0.743463
0.421569
0.0657925
-0.273043
-0.577994
-0.68388
-0.705057
-0.713528
-0.717763
-0.726234
-0.734705
-0.738941
-0.738941
-0.73047
-0.726234
-0.717763
-0.709293
-0.696586
-0.68388
-0.671174
-0.649996
-0.633055
-0.616113
-0.603407
-0.594936
-0.582229
-0.569523
-0.556817
-0.548346
-0.539875
-0.53564
-0.53564
-0.539875
-0.548346
-0.561052
-0.577994
-0.599171
-0.624584
-0.666938
-0.743176
-0.836356
-0.963419
-1.0693
-1.12437
-1.16248
-1.15401
-1.09472
-1.06083
-1.03966
-1.02271
-1.00577
-0.984596
-0.967654
-0.950713
-0.933771
-0.908358
-0.87871
-0.844827
-0.806708
-0.734705
-0.628819
-0.611878
-0.599171
-0.586465
-0.573759
-0.569523
-0.573759
-0.594936
-0.624584
-0.645761
-0.666938
-0.692351
-0.717763
-0.743176
-0.743176
-0.713528
-0.658467
-0.611878
-0.586465
-0.565288
-0.54411
-0.522933
-0.493285
-0.467873
-0.446695
-0.433989
-0.425518
-0.417047
-0.404341
-0.391635
-0.378928
-0.370458
-0.366222
-0.366222
-0.361987
-0.353516
-0.34928
-0.340809
-0.340809
-0.34928
-0.353516
-0.361987
-0.366222
-0.374693
-0.391635
-0.408576
-0.429754
-0.446695
-0.455166
-0.44246
-0.417047
-0.383164
-0.353516
-0.332339
-0.302691
-0.273043
-0.243394
-0.213746
-0.196805
-0.184098
-0.184098
-0.184098
-0.192569
-0.209511
-0.226453
-0.251865
-0.277278
-0.298455
-0.315397
-0.332339
-0.353516
-0.378928
-0.400106
-0.417047
-0.425518
-0.421283
-0.412812
-0.408576
-0.39587
-0.383164
-0.361987
-0.340809
-0.315397
-0.29422
-0.281513
-0.268807
-0.264572
-0.260336
-0.260336
-0.273043
-0.29422
-0.323868
-0.357751
-0.391635
-0.425518
-0.484814
-0.54411
-0.5907
-0.63729
-0.675409
-0.713528
-0.747411
-0.764353
-0.755882
-0.73047
-0.696586
-0.666938
-0.641526
-0.607642
-0.569523
-0.531404
-0.476344
-0.366222
-0.234924
-0.192569
-0.171392
-0.158686
-0.150215
-0.145979
-0.137508
-0.120567
-0.103625
-0.0909187
-0.0739769
-0.0612706
-0.0443289
-0.0316226
-0.0189162
0.0234381
0.116618
0.18862
0.239445
0.2818
0.311448
0.311448
0.290271
0.264858
0.247916
0.230975
0.209797
0.18862
0.175914
0.175914
0.180149
0.197091
0.214033
0.230975
0.260623
0.311448
0.315683
0.264858
0.23521
0.209797
0.184385
0.167443
0.163208
0.167443
0.184385
0.205562
0.247916
0.38345
0.62487
0.900174
1.26442
1.71761
2.20892
2.72141
3.20002
3.61509
3.9031
4.00051
3.91157
3.64474
3.11954
2.5647
2.04798
1.61173
1.33219
1.23054
1.17971
1.06112
0.8197
0.518984
0.324154
0.286035
0.256387
0.230975
0.214033
0.201326
0.192856
0.180149
0.171678
0.163208
0.163208
0.167443
0.175914
0.18862
0.197091
0.205562
0.209797
0.222504
0.23521
0.247916
0.260623
0.277564
0.294506
0.324154
0.362273
0.408863
0.455453
0.514749
0.620635
0.794288
0.942528
1.05265
1.16701
1.31948
1.51008
1.6202
1.67526
1.71338
1.74726
1.77267
1.79385
1.81079
1.8235
1.83621
1.85738
1.8955
1.91668
1.87432
1.77691
1.6202
1.43807
1.29407
1.10771
0.993353
0.946764
0.908645
0.874761
0.849348
0.823936
0.802759
0.785817
0.773111
0.756169
0.734992
0.701108
0.637577
0.56981
0.535926
0.514749
0.497807
0.480865
0.468159
0.459688
0.451217
0.451217
0.455453
0.463924
0.47663
0.497807
0.52322
0.552868
0.586751
0.67146
0.798523
0.845113
0.874761
0.895938
0.908645
0.91288
0.904409
0.878996
0.840878
0.802759
0.777346
0.747698
0.722285
0.692637
0.67146
0.658754
0.646047
0.637577
0.629106
0.620635
0.603693
0.57828
0.629106
0.679931
0.722285
0.747698
0.71805
0.654518
0.595222
0.531691
0.468159
0.400392
0.286035
0.192856
0.167443
0.150501
0.133559
0.112382
0.0827342
0.0403799
-0.0189162
-0.0909187
-0.209511
-0.298455
-0.412812
-0.577994
-0.679645
-0.738941
-0.78553
-0.819414
-0.836356
-0.83212
-0.806708
-0.772824
-0.73047
-0.688115
-0.628819
-0.594936
-0.607642
-0.624584
-0.63729
-0.654232
-0.666938
-0.675409
-0.675409
-0.662703
-0.620348
-0.569523
-0.514462
-0.459402
-0.378928
-0.311161
-0.277278
-0.24763
-0.217982
-0.184098
-0.158686
-0.158686
-0.184098
-0.209511
-0.226453
-0.251865
-0.273043
-0.289984
-0.302691
-0.306926
-0.302691
-0.289984
-0.277278
-0.260336
-0.239159
-0.209511
-0.162921
-0.0951541
-0.0146808
0.0827342
0.18862
0.252152
0.332625
0.468159
0.590987
0.667225
0.701108
0.650283
0.548632
0.468159
0.38345
0.315683
0.273329
0.23521
0.184385
0.116618
0.0361444
-0.0189162
-0.0485643
-0.0782124
-0.112096
-0.141744
-0.175627
-0.213746
-0.264572
-0.302691
-0.306926
-0.260336
-0.20104
-0.158686
-0.116331
-0.0782124
-0.0527998
-0.0443289
-0.0485643
-0.0655061
-0.0824478
-0.103625
-0.124802
-0.150215
-0.175627
-0.192569
-0.184098
-0.150215
-0.0993896
-0.0189162
0.120853
0.349567
0.679931
1.12889
1.64985
2.17928
2.64517
2.9586
3.07719
3.08142
2.99248
2.75106
2.42917
2.03951
1.58208
1.10771
0.603693
0.0869697
-0.315397
-0.565288
-0.717763
-0.840591
-0.933771
-1.02271
-1.08625
-1.13284
-1.17943
-1.23872
-1.31072
-1.45473
-1.58179
-1.65803
-1.63685
-1.48861
-1.3319
-1.14131
-0.997302
-0.929535
-0.887181
-0.861768
-0.861768
-0.882945
-0.908358
-0.942242
-0.988831
-0.980361
-0.882945
-0.798237
-0.721999
-0.671174
-0.649996
-0.641526
-0.63729
-0.633055
-0.620348
-0.603407
-0.594936
-0.5907
-0.594936
-0.603407
-0.620348
-0.63729
-0.645761
-0.658467
-0.675409
-0.700822
-0.717763
-0.726234
-0.734705
-0.738941
-0.747411
-0.751647
-0.768589
-0.781295
-0.78553
-0.78553
-0.781295
-0.77706
-0.772824
-0.760118
-0.734705
-0.700822
-0.63729
-0.484814
-0.374693
-0.319632
-0.285749
-0.256101
-0.234924
-0.217982
-0.20104
-0.179863
-0.150215
-0.205276
-0.243394
-0.268807
-0.285749
-0.29422
-0.302691
-0.311161
-0.319632
-0.315397
-0.298455
-0.273043
-0.234924
-0.188334
-0.133273
-0.0782124
-0.0189162
0.0954406
0.201326
0.264858
0.319919
0.370744
0.434276
0.47663
0.485101
0.472394
0.455453
0.425805
0.387686
0.455453
0.506278
0.527455
0.548632
0.561339
0.56981
0.57828
0.590987
0.612164
0.637577
0.662989
0.688402
0.713814
0.743463
0.781581
0.845113
0.91288
0.963705
0.997589
1.03147
1.095
1.23901
1.38301
1.47196
1.4889
1.4889
1.4889
1.4889
1.49313
1.49313
1.49737
1.49737
1.50161
1.51431
1.53549
1.5609
1.57784
1.59479
1.60749
1.62867
1.65832
1.68797
1.70914
1.72608
1.74303
1.7642
1.78538
1.81503
1.84468
1.88703
1.94209
1.98868
2.01833
2.03951
2.06492
2.0861
2.0988
2.10727
2.11998
2.14116
2.16233
2.17928
2.20045
2.21316
2.21739
2.22587
2.23434
2.24281
2.25975
2.27669
2.29787
2.32328
2.35293
2.38258
2.41646
2.45881
2.5054
2.55199
2.60282
2.64941
2.70023
2.7553
2.81036
2.85271
2.8993
2.94165
2.97977
3.01366
3.05178
3.1026
3.1619
3.22119
3.2932
3.39061
3.52191
3.53038
3.46261
3.41602
3.38214
3.33979
3.2932
3.25508
3.20849
3.1026
2.96707
2.90354
2.86965
2.83577
2.78918
2.72988
2.65364
2.50964
2.27246
2.03527
1.83197
1.65408
1.46349
1.26866
1.095
0.997589
0.942528
0.900174
0.853584
0.811229
0.756169
0.650283
0.518984
0.451217
0.400392
0.493572
0.76464
1.20513
1.79385
2.59858
3.47108
4.03863
4.01322
3.3059
1.18818
-2.00957
-5.82994
-9.48512
-12.2043
-13.1784
-13.1911
-12.272
-11.6494
-11.5817
-11.8485
-12.4796
-12.8862
-13.0217
-12.865
-12.6066
-12.3525
-12.1619
-12.0221
-11.912
-11.8104
-11.7087
-11.5944
-11.4461
-11.2344
-11.0056
-10.7981
-10.6075
-10.4423
-10.3026
-10.1586
-10.0188
-9.86631
-9.70113
-9.52747
-9.33264
-9.12511
-8.89216
-8.68886
-8.50673
-8.32885
-8.15943
-7.98154
-7.79518
-7.61729
-7.4394
-7.27422
-7.12175
-6.95656
-6.83797
-6.76173
-6.69397
-6.63043
-6.53302
-6.38478
-6.2323
-6.06712
-5.885
-5.70287
-5.60122
-5.55463
-5.52075
-5.4911
-5.45298
-5.4191
-5.38098
-5.33439
-5.26239
-5.13956
-5.01673
-4.85579
-4.64401
-4.46613
-4.33906
-4.25012
-4.16541
-4.07647
-3.97481
-3.87316
-3.77151
-3.64445
-3.53433
-3.44115
-3.34797
-3.25903
-3.16161
-3.04302
-2.92443
-2.77195
-2.53477
-2.24676
-1.97992
-1.73427
-1.48438
-1.35731
-1.30225
-1.25566
-1.21755
-1.19213
-1.16248
-1.14131
-1.12013
-1.10319
-1.07778
-1.03542
-0.946477
-0.743176
-0.624584
-0.577994
-0.53564
-0.505992
-0.476344
-0.455166
-0.433989
-0.408576
-0.387399
-0.370458
-0.357751
-0.34928
-0.345045
-0.34928
-0.340809
-0.328103
-0.302691
-0.277278
-0.256101
-0.234924
-0.213746
-0.188334
-0.15445
-0.10786
-0.0527998
-0.0019745
0.0446153
0.099676
0.180149
0.264858
0.336861
0.379215
0.413098
0.446982
0.480865
0.506278
0.535926
0.565574
0.595222
0.616399
0.637577
0.662989
0.688402
0.71805
0.747698
0.785817
0.840878
0.908645
0.989118
1.08653
1.21783
1.31948
1.39148
1.49737
1.66679
1.86162
2.00139
2.07339
2.13269
2.12422
2.00139
1.87856
1.7642
1.65832
1.55667
1.43807
1.2983
1.12465
1.00606
0.91288
0.845113
0.806994
0.811229
0.845113
0.895938
0.955234
1.023
1.12042
1.2263
1.34489
1.40419
1.44655
1.48043
1.51008
1.53972
1.56937
1.59902
1.62867
1.65832
1.68373
1.70914
1.73455
1.7515
1.7642
1.77267
1.78114
1.78962
1.79809
1.81079
1.82773
1.84891
1.87009
1.8955
1.92515
1.95056
1.98021
2.00986
2.03951
2.07339
2.11151
2.18775
2.32328
2.3614
2.36987
2.37411
2.37411
2.37411
2.37834
2.38258
2.39105
2.39528
2.39528
2.39528
2.39528
2.39952
2.40375
2.40375
2.40375
2.40799
2.41222
2.4207
2.4334
2.45881
2.4927
2.53505
2.62823
2.82306
3.13225
3.52191
3.99628
4.52147
5.05937
5.49986
5.66928
5.67775
5.57186
5.47021
5.37703
5.28809
5.21185
4.96196
4.49182
3.85227
3.28472
2.84847
2.58164
2.29787
2.03527
1.64138
1.31101
1.19242
1.20089
1.33642
1.52278
1.75573
1.9675
2.17928
2.31905
2.40799
2.46305
2.45881
2.39528
2.31481
2.24704
2.16657
2.10304
2.09457
2.14116
2.21739
2.31057
2.44187
2.55199
2.62823
2.68753
2.72565
2.72565
2.70871
2.68329
2.65364
2.61129
2.61553
2.68753
2.75953
2.83577
2.83153
2.72565
2.60705
2.47576
2.35716
2.20892
1.97597
1.80656
1.72185
1.65832
1.59902
1.54396
1.49737
1.44655
1.37878
1.2856
1.19242
1.10347
1.0103
0.917115
0.8197
0.713814
0.603693
0.497807
0.387686
0.290271
0.171678
0.031909
-0.145979
-0.234924
-0.289984
-0.340809
-0.383164
-0.412812
-0.433989
-0.450931
-0.455166
-0.446695
-0.433989
-0.408576
-0.378928
-0.340809
-0.306926
-0.268807
-0.230688
-0.192569
-0.15445
-0.116331
-0.0739769
-0.0316226
0.0107318
0.0488507
0.0827342
0.108147
0.125089
0.125089
0.108147
0.0827342
0.0530862
0.0107318
-0.0273871
-0.0655061
-0.103625
-0.137508
-0.158686
-0.167157
-0.175627
-0.188334
-0.205276
-0.226453
-0.260336
-0.29422
-0.332339
-0.374693
-0.417047
-0.455166
-0.484814
-0.510227
-0.522933
-0.527169
-0.527169
-0.531404
-0.539875
-0.556817
-0.577994
-0.611878
-0.654232
-0.696586
-0.743176
-0.78553
-0.823649
-0.849062
-0.870239
-0.887181
-0.899887
-0.904123
-0.904123
-0.904123
-0.904123
-0.916829
-0.946477
-0.976125
-1.00577
-1.01848
-1.01424
-1.00577
-0.988831
-0.976125
-0.963419
-0.942242
-0.916829
-0.887181
-0.857533
-0.836356
-0.819414
-0.798237
-0.772824
-0.738941
-0.705057
-0.671174
-0.645761
-0.611878
-0.573759
-0.531404
-0.48905
-0.44246
-0.404341
-0.378928
-0.357751
-0.332339
-0.311161
-0.29422
-0.273043
-0.251865
-0.226453
-0.205276
-0.192569
-0.184098
-0.184098
-0.184098
-0.188334
-0.20104
-0.205276
-0.209511
-0.217982
-0.226453
-0.230688
-0.234924
-0.239159
-0.243394
-0.239159
-0.230688
-0.217982
-0.209511
-0.20104
-0.192569
-0.192569
-0.196805
-0.205276
-0.217982
-0.230688
-0.251865
-0.273043
-0.29422
-0.311161
-0.332339
-0.353516
-0.374693
-0.400106
-0.421283
-0.44246
-0.467873
-0.48905
-0.514462
-0.539875
-0.565288
-0.582229
-0.586465
-0.586465
-0.577994
-0.565288
-0.548346
-0.522933
-0.48905
-0.455166
-0.421283
-0.383164
-0.340809
-0.285749
-0.217982
-0.141744
-0.0824478
-0.0316226
0.0530862
0.370744
0.823936
1.2983
1.78962
2.35716
2.94589
3.37367
3.51344
3.42026
3.13648
2.63247
2.12422
1.83197
1.54396
1.26019
0.967941
0.709579
0.32839
-0.162921
-0.662703
-0.912594
-1.01848
-1.07354
-1.11589
-1.14554
-1.15401
-1.14131
-1.09895
-1.04389
-0.993067
-0.954948
-0.921064
-0.887181
-0.844827
-0.806708
-0.768589
-0.738941
-0.709293
-0.688115
-0.666938
-0.649996
-0.63729
-0.628819
-0.620348
-0.620348
-0.624584
-0.633055
-0.633055
-0.628819
-0.620348
-0.607642
-0.5907
-0.582229
-0.577994
-0.569523
-0.565288
-0.552581
-0.539875
-0.527169
-0.514462
-0.505992
-0.48905
-0.467873
-0.446695
-0.421283
-0.400106
-0.378928
-0.357751
-0.336574
-0.311161
-0.285749
-0.256101
-0.234924
-0.213746
-0.188334
-0.167157
-0.141744
-0.129038
-0.116331
-0.112096
-0.103625
-0.0951541
-0.0866833
-0.0782124
-0.0697415
-0.0612706
-0.0485643
-0.035858
-0.0189162
0.00226094
0.0192027
0.031909
0.0403799
0.0488507
0.0573216
0.0657925
0.0784988
0.0912051
0.108147
0.129324
0.158972
0.192856
0.226739
0.260623
0.290271
0.319919
0.341096
0.353802
0.362273
0.366509
0.362273
0.353802
0.336861
0.315683
0.290271
0.260623
0.226739
0.18862
0.146266
0.108147
0.0657925
0.0276736
-0.0146808
-0.0485643
-0.0824478
-0.112096
-0.150215
-0.184098
-0.217982
-0.24763
-0.281513
-0.315397
-0.34928
-0.378928
-0.400106
-0.412812
-0.412812
-0.400106
-0.383164
-0.357751
-0.328103
-0.29422
-0.260336
-0.222217
-0.192569
-0.162921
-0.133273
-0.10786
-0.0824478
-0.0570352
-0.0273871
0.0107318
0.0488507
0.0912051
0.125089
0.150501
0.154737
0.133559
0.099676
0.0488507
-0.0019745
-0.0527998
-0.103625
-0.145979
-0.192569
-0.243394
-0.29422
-0.340809
-0.378928
-0.412812
-0.44246
-0.476344
-0.510227
-0.54411
-0.577994
-0.603407
-0.620348
-0.63729
-0.649996
-0.666938
-0.68388
-0.700822
-0.713528
-0.721999
-0.73047
-0.743176
-0.755882
-0.772824
-0.78553
-0.794001
-0.794001
-0.789766
-0.781295
-0.768589
-0.755882
-0.734705
-0.709293
-0.679645
-0.641526
-0.603407
-0.565288
-0.527169
-0.476344
-0.383164
-0.273043
-0.184098
-0.0951541
0.0361444
0.180149
0.214033
0.226739
0.239445
0.252152
0.260623
0.264858
0.269093
0.264858
0.264858
0.264858
0.260623
0.252152
0.23521
0.214033
0.192856
0.180149
0.167443
0.158972
0.154737
0.154737
0.150501
0.14203
0.137795
0.129324
0.116618
0.103911
0.0912051
0.0827342
0.0742634
0.0700279
0.0657925
0.0700279
0.0742634
0.0827342
0.0827342
0.0827342
0.0784988
0.0784988
0.0784988
0.0869697
0.129324
0.184385
0.247916
0.307212
0.366509
0.438511
0.52322
0.603693
0.739227
1.19242
1.72608
2.2894
2.84424
3.11954
3.31014
3.43297
3.30167
2.90777
2.37834
1.84891
1.34913
0.870526
0.574045
0.264858
-0.0104454
-0.251865
-0.518698
-0.751647
-0.916829
-1.03542
-1.13707
-1.23449
-1.21331
-1.03119
-0.882945
-0.768589
-0.666938
-0.586465
-0.522933
-0.455166
-0.34928
-0.192569
-0.0146808
0.239445
0.442746
0.510513
0.548632
0.56981
0.582516
0.56981
0.497807
0.391921
0.286035
0.205562
0.120853
0.0361444
-0.0316226
-0.0782124
-0.0909187
-0.0782124
-0.0316226
0.0361444
0.129324
0.298742
0.620635
0.8197
0.929822
1.01877
1.12042
1.2136
1.2983
1.39148
1.49313
1.60749
1.72608
1.83197
1.8955
1.93786
1.97597
2.00562
2.03951
2.07339
2.10304
2.13269
2.14963
2.16657
2.18351
2.20045
2.21739
2.22587
2.23857
2.25975
2.3021
2.34446
2.36564
2.33599
2.25551
2.14539
2.00562
1.80232
1.63714
1.4169
1.14583
0.870526
0.654518
0.565574
0.514749
0.47663
0.451217
0.438511
0.442746
0.451217
0.463924
0.472394
0.480865
0.489336
0.497807
0.510513
0.514749
0.510513
0.480865
0.434276
0.374979
0.311448
0.218268
0.0657925
-0.0443289
-0.10786
-0.150215
-0.184098
-0.205276
-0.217982
-0.230688
-0.230688
-0.217982
-0.184098
-0.137508
-0.0866833
-0.0316226
0.031909
0.129324
0.218268
0.286035
0.336861
0.374979
0.404628
0.425805
0.446982
0.468159
0.480865
0.480865
0.468159
0.446982
0.417334
0.38345
0.345331
0.298742
0.23521
0.108147
-0.0824478
-0.167157
-0.205276
-0.239159
-0.268807
-0.29422
-0.311161
-0.323868
-0.336574
-0.345045
-0.353516
-0.366222
-0.378928
-0.391635
-0.391635
-0.391635
-0.39587
-0.400106
-0.408576
-0.408576
-0.412812
-0.421283
-0.429754
-0.438225
-0.450931
-0.467873
-0.480579
-0.48905
-0.497521
-0.505992
-0.514462
-0.510227
-0.510227
-0.514462
-0.518698
-0.522933
-0.527169
-0.527169
-0.522933
-0.514462
-0.501756
-0.493285
-0.48905
-0.48905
-0.480579
-0.480579
-0.480579
-0.48905
-0.501756
-0.510227
-0.522933
-0.527169
-0.527169
-0.527169
-0.527169
-0.531404
-0.531404
-0.527169
-0.518698
-0.518698
-0.539875
-0.518698
-0.378928
-0.289984
-0.222217
-0.158686
-0.112096
-0.0951541
-0.116331
-0.171392
-0.24763
-0.319632
-0.378928
-0.44246
-0.514462
-0.582229
-0.645761
-0.696586
-0.743176
-0.781295
-0.827885
-0.882945
-0.967654
-1.03542
-1.0693
-1.09472
-1.10742
-1.12437
-1.14131
-1.15825
-1.17096
-1.17943
-1.17096
-1.14554
-1.10319
-1.04389
-0.976125
-0.870239
-0.68388
-0.565288
-0.285749
0.0488507
0.485101
0.972176
1.44655
1.92515
2.41646
2.86118
3.14496
3.24661
3.23814
3.09837
2.89506
2.64941
2.27246
1.82773
1.30678
0.857819
0.502043
0.14203
-0.0993896
-0.336574
-0.493285
-0.539875
-0.594936
-0.569523
-0.306926
0.0912051
0.277564
0.370744
0.425805
0.480865
0.552868
0.637577
0.794288
1.023
1.17548
1.27289
1.34913
1.40843
1.43384
1.45502
1.47619
1.49313
1.51008
1.52702
1.53549
1.53972
1.54396
1.5482
1.55667
1.56514
1.57361
1.57361
1.57361
1.58208
1.59902
1.6202
1.64138
1.66255
1.68373
1.70914
1.73455
1.77691
1.80232
1.80232
1.75573
1.67949
1.59479
1.48466
1.37454
1.27713
1.18818
1.10347
1.01877
0.895938
0.684166
0.425805
0.205562
0.0488507
-0.0739769
-0.239159
-0.336574
-0.391635
-0.44246
-0.48905
-0.539875
-0.594936
-0.649996
-0.709293
-0.768589
-0.840591
-0.938006
-1.01848
-1.04813
-1.01424
-0.954948
-0.87871
-0.760118
-0.556817
-0.391635
-0.260336
-0.0909187
-0.0019745
0.0530862
0.0954406
0.129324
0.158972
0.184385
0.192856
0.180149
0.146266
0.108147
0.0657925
0.0234381
-0.0146808
-0.0485643
-0.0866833
-0.129038
-0.167157
-0.20104
-0.226453
-0.256101
-0.289984
-0.323868
-0.353516
-0.374693
-0.39587
-0.421283
-0.459402
-0.514462
-0.603407
-0.705057
-0.815179
-0.904123
-0.980361
-1.0566
-1.12013
-1.16672
-1.20907
-1.26837
-1.35308
-1.34461
-1.23872
-1.17096
-1.12013
-1.0693
-1.03542
-1.02271
-1.03542
-1.06083
-1.09895
-1.13707
-1.17943
-1.21755
-1.24719
-1.27684
-1.30649
-1.32767
-1.34037
-1.35308
-1.36579
-1.37002
-1.37002
-1.35731
-1.33614
-1.30649
-1.27684
-1.24296
-1.20907
-1.14554
-1.06083
-0.954948
-0.836356
-0.747411
-0.671174
-0.599171
-0.539875
-0.48905
-0.446695
-0.408576
-0.378928
-0.366222
-0.353516
-0.336574
-0.315397
-0.298455
-0.285749
-0.273043
-0.256101
-0.239159
-0.222217
-0.205276
-0.192569
-0.179863
-0.171392
-0.158686
-0.137508
-0.0866833
-0.00620994
0.0912051
0.214033
0.413098
0.650283
0.8197
0.95947
1.09077
1.26442
1.44231
1.5482
1.6202
1.64985
1.59902
1.47196
1.32795
1.1543
1.01453
0.870526
0.726521
0.582516
0.489336
0.421569
0.374979
0.345331
0.324154
0.302977
0.277564
0.256387
0.239445
0.226739
0.214033
0.201326
0.18862
0.175914
0.158972
0.14203
0.125089
0.103911
0.0869697
0.0615571
0.0361444
0.0107318
-0.0189162
-0.0739769
-0.20104
-0.345045
-0.463637
-0.565288
-0.633055
-0.662703
-0.675409
-0.700822
-0.73047
-0.577994
-0.323868
-0.0570352
0.366509
0.815465
1.30254
1.77691
2.23434
2.34446
2.35716
2.3614
2.3614
2.35293
2.32328
2.26398
2.1708
1.98445
1.60749
0.967941
0.315683
-0.15445
-0.302691
-0.391635
-0.446695
-0.480579
-0.505992
-0.522933
-0.539875
-0.565288
-0.586465
-0.607642
-0.620348
-0.620348
-0.586465
-0.539875
-0.48905
-0.44246
-0.400106
-0.340809
-0.277278
-0.24763
-0.260336
-0.311161
-0.378928
-0.455166
-0.556817
-0.649996
-0.747411
-0.827885
-0.895652
-0.959183
-1.02271
-1.07778
-1.14131
-1.26837
-1.44202
-1.54367
-1.61568
-1.60297
-1.46744
-1.3192
-1.15825
-1.03119
-0.870239
-0.662703
-0.408576
-0.277278
-0.251865
-0.239159
-0.222217
-0.213746
-0.209511
-0.213746
-0.217982
-0.217982
-0.217982
-0.217982
-0.217982
-0.226453
-0.239159
-0.256101
-0.268807
-0.277278
-0.285749
-0.302691
-0.315397
-0.306926
-0.251865
-0.167157
-0.0866833
-0.0019745
0.0700279
0.125089
0.163208
0.180149
0.197091
0.214033
0.23521
0.256387
0.273329
0.286035
0.290271
0.294506
0.294506
0.294506
0.290271
0.2818
0.260623
0.230975
0.205562
0.18862
0.175914
0.158972
0.14203
0.112382
0.0827342
0.0488507
0.0107318
-0.0273871
-0.0570352
-0.0951541
-0.124802
-0.145979
-0.158686
-0.162921
-0.162921
-0.162921
-0.167157
-0.184098
-0.20104
-0.209511
-0.192569
-0.141744
-0.0782124
-0.0316226
-0.00620994
0.0192027
0.0488507
0.0827342
0.120853
0.150501
0.167443
0.180149
0.18862
0.192856
0.192856
0.18862
0.175914
0.158972
0.14203
0.129324
0.129324
0.129324
0.129324
0.125089
0.120853
0.116618
0.108147
0.103911
0.0954406
0.0827342
0.0657925
0.0488507
0.0361444
0.031909
0.0276736
0.031909
0.031909
0.0403799
0.0615571
0.099676
0.14203
0.18862
0.23521
0.2818
0.315683
0.353802
0.387686
0.434276
0.480865
0.52322
0.561339
0.586751
0.607929
0.616399
0.612164
0.595222
0.565574
0.527455
0.480865
0.438511
0.400392
0.358038
0.294506
0.222504
0.158972
0.116618
0.103911
0.116618
0.146266
0.18862
0.23521
0.298742
0.404628
0.463924
0.396157
0.273329
0.209797
0.158972
0.116618
0.0784988
0.0488507
0.0361444
0.0361444
0.0361444
0.0403799
0.0530862
0.0615571
0.0615571
0.0700279
0.0954406
0.125089
0.154737
0.171678
0.180149
0.180149
0.171678
0.154737
0.133559
0.112382
0.0869697
0.0573216
0.031909
0.00649637
-0.0104454
-0.0273871
-0.0400934
-0.0485643
-0.0485643
-0.0443289
-0.0316226
-0.0104454
0.0192027
0.0446153
0.0700279
0.099676
0.137795
0.175914
0.218268
0.264858
0.379215
0.510513
0.62487
0.756169
0.993353
1.34913
1.70914
2.0268
2.51388
2.99672
3.53885
3.75486
3.87769
3.95392
3.73368
3.35249
2.96707
2.61976
2.33175
2.0988
1.88703
1.55243
1.03994
0.438511
-0.15445
-0.700822
-0.844827
-0.857533
-0.853297
-0.849062
-0.844827
-0.844827
-0.844827
-0.853297
-0.866004
-0.882945
-0.904123
-0.929535
-0.950713
-0.967654
-0.988831
-1.01848
-1.0566
-1.09472
-1.14131
-1.20907
-1.28531
-1.34037
-1.34461
-1.32343
-1.28955
-1.2599
-1.24296
-1.22178
-1.19637
-1.16672
-1.14131
-1.12437
-1.12013
-1.12437
-1.13707
-1.15401
-1.16672
-1.17943
-1.19213
-1.21331
-1.23025
-1.24719
-1.2599
-1.26837
-1.26837
-1.2599
-1.23872
-1.20484
-1.15401
-1.09895
-1.03542
-0.967654
-0.87871
-0.713528
-0.586465
-0.48905
-0.438225
-0.400106
-0.378928
-0.366222
-0.357751
-0.353516
-0.34928
-0.353516
-0.357751
-0.361987
-0.366222
-0.361987
-0.34928
-0.328103
-0.306926
-0.289984
-0.268807
-0.243394
-0.217982
-0.192569
-0.162921
-0.133273
-0.0993896
-0.0655061
-0.0189162
0.0742634
0.180149
0.277564
0.358038
0.438511
0.514749
0.590987
0.667225
0.734992
0.790052
0.815465
0.823936
0.8197
0.811229
0.806994
0.798523
0.798523
0.798523
0.794288
0.798523
0.798523
0.794288
0.777346
0.756169
0.734992
0.709579
0.67146
0.641812
0.722285
0.883232
1.0103
1.13312
1.23901
1.31948
1.37878
1.4296
1.50584
1.60326
1.72185
1.87009
1.97597
2.06068
2.13269
2.19198
2.24281
2.2894
2.32752
2.3614
2.40375
2.44611
2.48423
2.49693
2.46729
2.39105
2.29787
2.19622
2.10304
1.99715
1.88703
1.79809
1.72608
1.66679
1.61173
1.55667
1.50584
1.45078
1.38301
1.2983
1.19665
1.11195
1.04841
0.997589
0.946764
0.895938
0.853584
0.823936
0.806994
0.798523
0.802759
0.815465
0.836642
0.874761
0.929822
0.997589
1.07806
1.19242
1.40843
1.57784
1.80656
2.07763
2.30634
2.45881
2.4927
2.51388
2.53082
2.54352
2.54776
2.53929
2.52235
2.4927
2.46729
2.4334
2.41646
2.48846
2.6367
2.75953
2.88659
2.99248
3.07295
3.14919
3.22966
3.3059
3.39485
3.49226
3.59391
3.71674
3.86922
3.87769
3.72521
3.29743
2.27246
0.726521
-1.23449
-3.39456
-5.38945
-6.7702
-7.24034
-7.42246
-7.58341
-7.97307
-8.7185
-9.519
-10.0273
-10.1967
-10.0315
-9.54018
-8.93451
-8.59144
-8.35002
-8.19755
-8.07895
-7.96883
-7.79094
-7.5114
-7.19798
-6.87609
-6.55843
-6.24924
-5.94006
-5.66052
-5.23274
-4.79649
-4.36871
-3.90705
-3.39456
-2.87784
-2.611
-2.47123
-2.38229
-2.31876
-2.29335
-2.33147
-2.4077
-2.47971
-2.51782
-2.539
-2.56441
-2.58559
-2.61947
-2.65336
-2.68724
-2.7296
-2.77195
-2.81007
-2.84395
-2.88207
-2.91596
-2.95831
-3.01761
-3.11502
-3.31832
-3.47927
-3.6021
-3.79693
-4.07647
-4.37718
-4.67366
-4.84731
-4.94897
-5.0252
-5.05909
-5.05909
-5.02944
-4.97014
-4.88543
-4.73719
-4.48307
-4.27553
-4.12729
-3.97481
-3.87316
-3.8054
-3.75034
-3.68681
-3.61904
-3.54704
-3.44539
-3.25479
-2.92443
-2.64489
-2.43735
-2.2764
-2.0731
-1.80204
-1.59026
-1.45896
-1.34461
-1.25143
-1.13707
-1.00154
-0.819414
-0.700822
-0.616113
-0.548346
-0.510227
-0.514462
-0.556817
-0.624584
-0.709293
-0.806708
-0.933771
-1.03542
-1.12437
-1.17519
-1.21755
-1.2599
-1.28955
-1.31072
-1.32767
-1.34037
-1.34037
-1.32767
-1.30649
-1.27684
-1.24296
-1.19637
-1.14978
-1.09895
-1.03542
-0.963419
-0.891416
-0.836356
-0.781295
-0.709293
-0.565288
-0.306926
-0.184098
-0.150215
-0.120567
-0.103625
-0.0951541
-0.0782124
-0.0655061
-0.0485643
-0.0316226
-0.0146808
0.00649637
0.0234381
0.0403799
0.0488507
0.0530862
0.0657925
0.0869697
0.112382
0.150501
0.209797
0.332625
0.455453
0.57828
0.658754
0.722285
0.777346
0.815465
0.845113
0.874761
0.895938
0.917115
0.934057
0.95947
1.0103
1.08653
0.925586
0.811229
0.747698
0.688402
0.646047
0.616399
0.603693
0.612164
0.637577
0.675695
0.71805
0.768875
0.815465
0.86629
0.925586
0.980647
1.03994
1.10771
1.17548
1.23054
1.28136
1.32795
1.37454
1.41266
1.45078
1.49313
1.53549
1.57361
1.60749
1.64138
1.68373
1.73032
1.77691
1.87009
2.03951
2.0988
2.13269
2.16657
2.20045
2.21316
2.1581
2.03104
1.90397
1.82773
1.76844
1.70914
1.65408
1.59479
1.54396
1.50161
1.47196
1.45502
1.43384
1.41266
1.39148
1.37454
1.3576
1.33642
1.30254
1.26019
1.20513
1.14583
1.06959
0.967941
0.8197
0.692637
0.62487
0.586751
0.557103
0.527455
0.502043
0.463924
0.421569
0.38345
0.345331
0.298742
0.239445
0.099676
-0.184098
-0.323868
-0.370458
-0.408576
-0.433989
-0.459402
-0.484814
-0.514462
-0.548346
-0.577994
-0.603407
-0.624584
-0.654232
-0.68388
-0.717763
-0.760118
-0.823649
-0.950713
-1.0566
-1.13707
-1.19637
-1.24296
-1.28955
-1.32343
-1.34884
-1.35308
-1.34037
-1.30649
-1.24296
-1.15401
-0.993067
-0.717763
-0.264572
0.243681
0.798523
1.40843
2.01833
2.58588
3.08566
3.23814
3.28472
3.31861
3.3059
3.15343
2.74682
2.17928
1.43807
0.71805
0.0869697
-0.539875
-1.08625
-1.36579
-1.57332
-1.72156
-1.7978
-1.87404
-1.9418
-1.7385
-1.56062
-1.45473
-1.37002
-1.30649
-1.25566
-1.21755
-1.17519
-1.10319
-0.984596
-0.781295
-0.599171
-0.446695
-0.315397
-0.20104
-0.0189162
0.239445
0.485101
0.743463
0.967941
1.12889
1.27289
1.34489
1.38725
1.42113
1.45078
1.46772
1.48043
1.4889
1.4889
1.47619
1.45502
1.4296
1.39996
1.3576
1.31525
1.27289
1.2263
1.18395
1.13736
1.095
1.05265
1.00606
0.95947
0.917115
0.874761
0.823936
0.756169
0.641812
0.442746
0.315683
0.154737
-0.0739769
-0.353516
-0.594936
-0.815179
-1.04813
-1.28531
-1.56909
-1.90369
-2.22558
-2.55594
-2.83548
-3.06843
-3.31832
-3.45386
-3.51739
-3.56821
-3.6021
-3.6148
-3.59363
-3.53856
-3.45386
-3.34373
-3.18702
-2.96678
-2.89478
-2.84395
-2.78889
-2.75924
-2.81431
-2.96678
-3.2082
-3.56398
-3.92823
-4.25012
-4.44918
-4.58472
-4.64401
-4.58472
-4.46613
-4.38989
-4.33483
-4.284
-4.23318
-4.17388
-4.11882
-4.06376
-3.99176
-3.89858
-3.69528
-3.36068
-3.05149
-2.73383
-2.58136
-2.51782
-2.467
-2.42464
-2.39076
-2.35688
-2.31876
-2.28488
-2.2637
-2.24252
-2.21711
-2.18746
-2.15781
-2.10699
-2.00957
-1.89945
-1.77239
-1.64532
-1.51403
-1.3912
-1.27261
-1.08201
-0.810943
-0.586465
-0.417047
-0.222217
0.031909
0.353802
0.667225
0.976412
1.19242
1.33642
1.45925
1.56937
1.67949
1.78962
1.89127
1.98445
2.13692
2.37411
2.55199
2.67059
2.71718
2.64941
2.48846
2.24281
1.8955
1.34066
0.684166
0.00226094
-0.641526
-1.23872
-1.75968
-2.23829
-2.71689
-3.19973
-3.39456
-3.47927
-3.53856
-3.53009
-3.40727
-3.08114
-2.73383
-2.31452
-1.83592
-1.34884
-0.887181
-0.484814
-0.24763
-0.0400934
0.0827342
-0.0400934
-0.24763
-0.510227
-0.798237
-1.06507
-1.48861
-2.00534
-2.56018
-3.11926
-3.64022
-4.22471
-4.87696
-5.4911
-6.04594
-6.53302
-6.90997
-7.09633
-7.19798
-7.26999
-7.29963
-7.25304
-7.15139
-7.04127
-6.89727
-6.74903
-6.37631
-5.88076
-5.27509
-4.55083
-3.83081
-3.28444
-2.86937
-2.45853
-2.00534
-1.67074
-1.55638
-1.64109
-1.90369
-2.29758
-2.7296
-3.15314
-3.49621
-3.69951
-3.91975
-4.05952
-4.15694
-4.14
-3.88587
-3.45809
-2.95407
-2.47971
-2.04769
-1.6538
-1.27261
-0.87871
-0.751647
-0.815179
-1.01848
-1.63262
-2.3357
-2.97949
-3.45809
-3.62327
-3.68681
-3.71222
-3.80963
-4.18235
-4.68213
-4.93626
-5.02097
-4.8219
-4.23318
-3.50892
-2.85242
-2.22981
-1.64532
-1.08625
-0.53564
-0.0316226
0.417334
0.853584
1.08653
1.30254
1.49313
1.65408
1.83197
2.1708
2.59858
3.06025
3.4372
3.74215
3.91157
4.19111
4.5003
4.92384
5.38974
5.80481
6.21565
6.61378
7.00767
7.51169
8.15548
8.78232
9.27363
9.57435
9.68871
9.78189
9.90048
10.0911
10.269
10.3876
10.3918
10.2647
9.92166
9.53623
9.1974
8.90092
8.56208
8.17242
7.73193
7.27874
6.88485
6.55872
6.20294
5.75822
5.22032
4.63159
4.08522
3.71674
3.59815
3.65744
3.81839
4.17417
4.60618
5.04667
5.41091
5.67775
5.86411
6.23682
6.54178
6.6519
6.66037
6.58837
6.38083
6.07164
5.66081
5.38974
5.42786
5.90223
6.8552
7.95218
9.02374
9.95554
10.6544
11.1965
11.6667
12.0351
12.3147
12.5434
12.7636
13.0135
13.238
13.3142
13.3312
13.3439
13.3566
13.3566
13.3397
13.2888
13.1533
12.9246
12.5646
12.0987
11.7048
11.4083
11.116
10.8492
10.7645
10.7222
10.7518
10.8873
10.9805
11.061
11.044
10.8196
10.2859
9.63788
9.0661
8.49008
7.80394
7.05426
6.34695
5.77516
5.29656
4.95349
4.79678
4.67395
4.53418
4.41559
4.32664
4.25464
4.16146
4.05134
3.87769
3.69133
3.42449
3.14072
2.91201
2.70447
2.41646
2.04374
1.72608
1.52702
1.2856
0.925586
0.552868
0.23521
-0.116331
-0.505992
-0.802472
-0.980361
-1.16248
-1.37849
-1.58603
-1.78086
-1.93333
-2.03922
-2.25099
-2.50935
-2.69995
-2.76772
-2.79736
-2.81431
-2.80583
-2.73807
-2.56441
-2.3357
-2.0731
-1.81898
-1.64532
-1.58179
-1.57332
-1.60297
-1.70462
-1.89945
-2.12393
-2.34417
-2.5983
-2.91172
-3.29291
-3.69951
-4.11882
-4.53389
-4.8939
-5.16074
-5.37251
-5.56734
-5.71134
-5.7537
-5.77911
-5.80029
-5.79605
-5.77064
-5.73252
-5.6817
-5.58852
-5.47839
-5.37674
-5.27933
-5.17768
-4.98708
-4.71602
-4.45765
-4.284
-4.11458
-3.91552
-3.80963
-3.65716
-3.45809
-3.29714
-3.19973
-3.09808
-3.03455
-3.00066
-2.98796
-3.07267
-3.18279
-3.2675
-3.30985
-3.39032
-3.55974
-3.64869
-3.71222
-3.75457
-3.7461
-3.67833
-3.52162
-3.28867
-2.94984
-2.61947
-2.28488
-1.90792
-1.59026
-1.44626
-1.39967
-1.45896
-1.63685
-1.91216
-2.17052
-2.37805
-2.55171
-2.85666
-3.30562
-3.84775
-4.58895
-5.44028
-6.14759
-6.5542
-6.78715
-7.02857
-7.10904
-7.05398
-6.9735
-6.90997
-6.87609
-6.85491
-6.85068
-6.88032
-6.98621
-7.15563
-7.21916
-7.19375
-7.11327
-6.90997
-6.70667
-6.53302
-6.37207
-6.2323
-6.07136
-6.01206
-5.99512
-5.98241
-5.97818
-5.97818
-5.98665
-5.97394
-5.957
-5.94006
-5.92312
-5.89347
-5.76641
-5.60546
-5.41486
-5.31745
-5.1565
-4.89814
-4.60166
-4.31789
-4.03411
-3.79693
-3.58939
-3.32256
-3.03455
-2.75501
-2.50935
-2.38229
-2.3357
-2.31029
-2.31029
-2.33994
-2.38653
-2.52206
-2.67877
-2.82278
-2.97949
-3.18702
-3.39456
-3.56821
-3.7461
-3.84775
-3.87316
-3.90281
-3.91975
-3.92399
-3.92823
-3.91975
-3.90281
-3.8774
-3.85199
-3.80116
-3.72492
-3.66139
-3.64869
-3.71222
-3.70375
-3.57245
-3.38609
-3.22091
-3.02184
-2.84819
-2.75077
-2.61947
-2.35264
-1.95451
-1.59026
-1.45049
-1.39967
-1.36579
-1.35731
-1.37426
-1.4039
-1.45473
-1.53097
-1.67921
-1.8571
-1.9291
-1.95028
-1.96298
-1.96722
-1.95875
-1.94604
-1.92486
-1.90369
-1.86557
-1.75968
-1.53944
-1.28531
-0.967654
-0.594936
-0.222217
0.120853
0.362273
0.552868
0.823936
1.26866
1.84044
2.38258
2.79765
2.92895
2.8993
2.63247
2.40375
2.22163
2.05221
1.98868
1.92091
1.82773
1.73455
1.68373
1.66255
1.67526
1.72185
1.83621
1.98868
2.06068
2.09033
2.11151
2.12422
2.14116
2.17504
2.21316
2.29363
2.42917
2.56047
2.70447
2.85271
2.90354
2.88659
2.87812
2.86118
2.81036
2.74682
2.58164
2.37834
2.22587
2.13269
2.06492
2.00562
1.9548
1.8828
1.73455
1.66255
1.68373
1.86162
2.08186
2.23434
2.33175
2.4207
2.50964
2.64094
2.81883
3.00942
3.14072
3.18307
3.22966
3.26778
3.39061
3.59815
3.77604
3.86074
3.9031
3.92428
3.89039
3.84804
3.80568
3.78027
3.78027
3.78874
3.78451
3.76756
3.74215
3.71674
3.68286
3.65321
3.62356
3.5685
3.47956
3.38638
3.28896
3.23814
3.20425
3.15766
3.12378
3.09837
3.06872
3.00095
2.85271
2.70871
2.62823
2.56047
2.42917
2.22163
1.9675
1.73032
1.54396
1.40419
1.31948
1.24748
1.19665
1.16701
1.20089
1.38301
1.72608
2.16233
2.6367
3.10684
3.55156
3.95392
4.26311
4.34782
4.32664
4.15723
3.81839
3.44991
3.14072
2.80189
2.40375
1.98868
1.59055
1.17548
0.777346
0.425805
0.137795
-0.0697415
-0.205276
-0.260336
-0.264572
-0.230688
-0.171392
-0.0443289
0.0530862
0.0827342
0.0742634
0.0361444
-0.0485643
-0.167157
-0.239159
-0.273043
-0.281513
-0.264572
-0.230688
-0.175627
-0.0697415
0.0361444
0.171678
0.252152
0.273329
0.209797
0.099676
0.0192027
0.00226094
0.0149672
0.0954406
0.171678
0.18862
0.112382
0.0446153
0.0149672
0.0192027
0.0403799
0.0615571
0.0742634
0.0234381
-0.116331
-0.205276
-0.239159
-0.230688
-0.179863
-0.162921
-0.273043
-0.44246
-0.63729
-0.823649
-1.01424
-1.16672
-1.32343
-1.61144
-1.97569
-2.28911
-2.467
-2.63642
-2.87784
-3.1362
-3.38609
-3.63174
-3.79269
-3.77998
-3.6741
-3.50468
-3.44962
-3.51315
-3.59786
-3.66563
-3.68257
-3.6741
-3.66139
-3.68257
-3.8054
-3.96634
-4.05952
-4.09764
-4.10611
-4.09764
-4.11882
-4.22047
-4.43224
-4.64401
-4.83884
-4.9532
-5.04215
-5.18191
-5.29204
-5.40639
-5.53769
-5.59275
-5.63511
-5.67323
-5.72405
-5.80029
-5.8257
-5.78758
-5.71982
-5.53769
-5.38522
-5.27509
-5.17344
-5.06332
-4.94897
-4.83037
-4.75837
-4.6906
-4.62707
-4.55931
-4.47036
-4.32636
-4.11458
-3.88587
-3.80963
-3.79693
-3.8181
-3.8774
-4.01293
-4.1527
-4.21623
-4.19082
-4.0807
-3.93246
-3.79269
-3.64445
-3.46656
-3.33526
-3.2675
-3.16161
-3.03455
-2.97949
-2.97102
-2.98372
-3.00066
-2.96255
-2.79736
-2.58559
-2.39076
-2.24676
-2.18746
-2.2044
-2.23829
-2.2637
-2.21711
-2.1324
-2.05616
-1.98839
-1.93333
-1.85286
-1.7385
-1.5945
-1.46744
-1.39543
-1.28531
-1.17096
-1.07354
