-302
-364
-427
-487
-524
-539
-544
-539
-529
-517
-502
-486
-474
-465
-456
-446
-435
-421
-405
-389
-381
-376
-371
-368
-365
-363
-362
-363
-365
-367
-371
-376
-382
-388
-397
-414
-430
-437
-442
-445
-448
-450
-452
-454
-455
-457
-458
-458
-456
-454
-452
-450
-447
-444
-441
-437
-435
-434
-432
-431
-428
-425
-422
-418
-415
-411
-408
-405
-403
-401
-399
-398
-396
-394
-392
-390
-388
-385
-382
-379
-375
-373
-370
-368
-365
-362
-357
-351
-343
-334
-325
-318
-310
-304
-300
-297
-295
-293
-291
-288
-285
-281
-277
-272
-268
-263
-260
-256
-253
-250
-246
-242
-237
-232
-227
-222
-217
-213
-210
-207
-205
-201
-197
-189
-181
-174
-167
-159
-149
-136
-121
-110
-102
-95
-90
-88
-87
-86
-85
-83
-81
-81
-84
-90
-96
-99
-102
-104
-107
-110
-112
-115
-116
-117
-117
-116
-115
-113
-109
-105
-101
-95
-89
-82
-67
-32
25
94
170
244
307
328
341
339
307
258
193
119
43
-20
-43
-47
-51
-54
-56
-57
-57
-57
-56
-54
-52
-49
-45
-42
-40
-38
-37
-35
-34
-33
-32
-32
-31
-31
-31
-30
-30
-30
-30
-31
-31
-32
-32
-31
-31
-31
-30
-30
-29
-27
-26
-25
-23
-22
-21
-19
-17
-15
-13
-9
-1
7
16
24
31
38
45
52
59
65
71
77
83
92
105
113
117
119
121
124
125
127
128
128
128
127
125
121
116
110
102
92
73
54
38
25
13
2
-2
-5
-8
-11
-13
-15
-17
-19
-20
-20
-21
-21
-21
-21
-21
-21
-21
-21
-20
-19
-17
-14
-11
-8
-5
-2
0
3
6
8
10
12
13
14
15
16
17
19
21
22
23
23
24
24
24
24
23
22
21
19
19
19
19
20
21
21
22
22
23
24
25
27
28
29
29
30
31
32
34
34
34
34
33
32
31
30
29
27
26
26
25
24
24
24
24
24
25
25
27
29
32
36
40
44
52
57
57
49
39
30
20
11
2
-4
-10
-14
-18
-21
-23
-25
-27
-29
-31
-33
-34
-34
-35
-37
-38
-43
-52
-41
-5
58
140
225
297
344
361
362
353
330
275
198
111
30
-35
-66
-76
-80
-85
-88
-90
-92
-94
-95
-96
-97
-98
-97
-96
-95
-95
-95
-94
-94
-94
-93
-93
-92
-90
-88
-86
-85
-83
-81
-79
-77
-75
-73
-71
-69
-62
-55
-48
-43
-38
-35
-32
-29
-26
-23
-21
-19
-16
-13
-10
-6
-2
1
6
12
20
27
35
43
51
60
69
78
86
93
98
103
108
113
117
119
120
121
121
121
119
116
111
107
102
97
90
78
66
54
42
31
20
10
2
-4
-9
-10
-11
-12
-13
-15
-16
-17
-19
-20
-22
-23
-25
-25
-26
-26
-27
-27
-27
-27
-27
-27
-27
-27
-27
-27
-27
-27
-27
-27
-26
-25
-23
-21
-20
-19
-18
-17
-16
-15
-15
-15
-16
-16
-16
-16
-16
-16
-16
-16
-17
-17
-18
-19
-20
-21
-22
-22
-24
-25
-26
-26
-26
-26
-26
-26
-26
-26
-25
-25
-25
-25
-25
-25
-24
-24
-25
-25
-27
-28
-29
-30
-30
-31
-31
-32
-32
-31
-30
-27
-23
-18
-13
-8
-4
1
9
17
23
23
19
12
4
-2
-10
-19
-27
-36
-44
-50
-55
-60
-64
-67
-70
-72
-73
-74
-74
-74
-73
-71
-69
-66
-62
-57
-52
-23
23
98
207
341
479
580
595
568
448
289
132
6
-76
-110
-116
-121
-125
-129
-132
-134
-136
-137
-138
-139
-138
-136
-134
-131
-129
-127
-125
-123
-122
-121
-120
-120
-119
-118
-117
-114
-111
-108
-105
-101
-98
-95
-92
-90
-89
-87
-85
-82
-80
-77
-75
-72
-70
-67
-64
-62
-60
-59
-57
-55
-52
-48
-43
-35
-18
-4
7
19
29
38
48
58
67
75
82
89
95
100
103
107
110
113
115
117
117
116
114
110
105
100
93
84
69
54
39
28
19
11
3
-3
-8
-12
-14
-16
-18
-20
-21
-23
-23
-24
-24
-25
-25
-26
-25
-25
-24
-22
-21
-19
-17
-16
-14
-12
-10
-8
-6
-4
-3
-3
-2
-1
-1
-1
0
0
0
0
1
1
1
2
3
3
3
3
3
2
3
3
3
3
3
2
2
2
3
3
4
4
5
6
7
8
8
9
10
11
12
13
13
14
15
16
17
18
19
19
20
21
22
23
24
25
26
28
29
30
31
31
32
34
36
38
39
41
42
44
46
48
51
53
55
58
62
65
69
73
77
80
84
88
92
97
101
107
116
125
129
125
116
105
94
78
68
62
59
56
53
50
48
46
45
44
44
44
44
45
47
49
53
57
61
67
90
141
218
320
442
570
678
710
696
589
426
256
119
54
36
26
18
11
6
0
-6
-15
-23
-26
-23
-17
-10
-7
-5
-4
-3
-3
-2
-1
0
1
3
3
3
2
1
0
0
-1
-1
-2
-3
-3
-4
-4
-4
-4
-3
-2
-1
0
0
1
2
4
6
8
11
15
20
26
33
39
45
51
57
64
72
81
90
100
108
114
120
125
129
133
136
138
140
140
140
139
137
135
133
130
126
123
117
105
94
86
72
52
36
23
10
4
0
-3
-5
-7
-9
-11
-13
-14
-14
-14
-14
-14
-14
-14
-14
-13
-12
-12
-12
-12
-12
-12
-12
-12
-12
-12
-13
-12
-12
-11
-10
-10
-10
-9
-8
-8
-7
-7
-7
-7
-6
-6
-7
-7
-8
-9
-8
-8
-7
-7
-7
-7
-7
-7
-7
-7
-8
-9
-10
-10
-11
-10
-10
-10
-10
-9
-9
-8
-8
-8
-8
-8
-7
-7
-7
-7
-8
-8
-8
-9
-9
-10
-11
-12
-14
-15
-15
-16
-19
-22
-25
-27
-27
-27
-27
-27
-27
-27
-27
-26
-24
-23
-23
-22
-21
-20
-18
-17
-17
-17
-18
-18
-18
-17
-16
-15
-14
-13
-10
-6
-1
2
6
9
12
16
22
27
30
30
27
24
20
15
10
3
-4
-12
-20
-26
-33
-39
-46
-52
-58
-65
-73
-82
-91
-101
-112
-116
-118
-120
-123
-107
-60
14
119
252
397
527
594
593
517
359
175
12
-98
-135
-131
-107
-93
-93
-106
-117
-127
-134
-134
-131
-127
-124
-121
-120
-119
-118
-117
-115
-113
-110
-108
-106
-104
-103
-102
-101
-100
-99
-97
-96
-94
-93
-91
-90
-89
-87
-85
-84
-83
-81
-79
-76
-73
-68
-60
-52
-46
-40
-35
-29
-24
-18
-13
-7
0
7
16
25
32
37
42
49
57
66
73
80
86
91
94
97
99
101
103
105
109
112
113
111
107
102
96
89
81
72
58
39
26
19
12
7
2
-5
-19
-26
-29
-31
-33
-35
-36
-37
-37
-38
-38
-39
-39
-38
-38
-37
-36
-35
-34
-32
-30
-27
-25
-23
-21
-17
-14
-10
-8
-6
-4
-3
-1
0
1
1
0
-4
-8
-13
-19
-24
-28
-31
-33
-35
-36
-38
-39
-40
-40
-40
-40
-39
-38
-37
-34
-31
-29
-27
-25
-24
-24
-23
-23
-22
-22
-21
-21
-20
-20
-20
-19
-18
-18
-18
-18
-18
-18
-18
-17
-16
-15
-15
-14
-13
-11
-9
-8
-6
-5
-3
-1
1
3
6
8
9
10
11
13
14
15
16
16
17
18
19
21
23
25
26
28
31
35
43
60
73
80
84
85
81
75
67
57
48
39
30
21
16
12
8
4
0
-5
-8
-12
-15
-19
-22
-23
-23
-23
-22
-20
-17
-6
39
114
222
355
490
589
619
564
435
270
114
2
-29
-36
-42
-45
-47
-48
-48
-48
-47
-46
-44
-43
-40
-38
-37
-37
-36
-36
-35
-35
-34
-33
-32
-31
-30
-29
-29
-28
-28
-28
-27
-26
-24
-23
-21
-19
-17
-14
-11
-8
-5
-3
0
1
3
5
7
9
12
16
20
25
29
33
35
38
42
46
49
53
58
69
86
97
106
119
125
129
132
135
137
139
140
140
140
139
138
136
134
131
127
121
111
102
90
75
62
52
44
35
27
18
10
3
-5
-11
-16
-20
-24
-27
-30
-32
-34
-36
-37
-37
-35
-33
-32
-31
-29
-28
-27
-25
-23
-22
-20
-19
-19
-18
-18
-17
-17
-16
-16
-15
-15
-14
-13
-12
-11
-10
-10
-11
-12
-14
-15
-17
-18
-20
-22
-24
-25
-25
-23
-20
-17
-14
-12
-10
-8
-6
-4
-3
-3
-3
-3
-3
-3
-4
-4
-5
-5
-5
-6
-6
-7
-7
-7
-7
-5
-4
-1
0
2
4
6
7
8
8
9
10
11
12
13
14
15
17
18
19
21
22
25
29
39
49
56
61
65
67
68
66
62
57
48
31
19
12
5
-1
-5
-8
-11
-14
-16
-17
-18
-19
-20
-21
-22
-24
-27
-29
-25
-16
10
58
128
221
333
449
539
574
536
431
285
137
21
-19
-30
-38
-42
-45
-47
-48
-49
-50
-51
-52
-54
-56
-57
-56
-53
-49
-46
-44
-43
-41
-40
-38
-36
-35
-34
-33
-32
-32
-31
-31
-30
-30
-29
-28
-27
-26
-25
-24
-24
-23
-21
-19
-17
-15
-12
-8
-3
0
4
8
12
16
21
25
29
33
37
44
52
60
67
72
78
84
90
94
98
102
105
108
110
112
114
116
117
117
116
114
111
108
103
95
86
75
60
44
28
13
0
-9
-17
-26
-29
-30
-31
-31
-32
-33
-33
-33
-34
-34
-34
-34
-34
-34
-33
-32
-32
-32
-32
-32
-31
-31
-32
-32
-32
-33
-33
-33
-33
-33
-34
-34
-34
-35
-35
-36
-36
-37
-37
-38
-38
-38
-37
-37
-37
-37
-37
-36
-36
-35
-35
-35
-36
-36
-36
-35
-34
-34
-34
-33
-31
-37
-41
-44
-47
-49
-50
-50
-49
-47
-44
-41
-37
-30
-30
-35
-38
-41
-43
-44
-44
-44
-44
-43
-42
-40
-37
-35
-33
-31
-28
-26
-24
-23
-23
-23
-24
-24
-25
-27
-29
-33
-26
-15
-2
5
9
12
14
14
13
10
6
0
-7
-20
-28
-31
-33
-35
-37
-38
-40
-41
-43
-43
-44
-43
-43
-43
-42
-41
-40
-38
-35
-32
-28
-9
40
116
218
341
472
581
635
610
503
340
164
22
-64
-86
-84
-67
-58
-63
-76
-104
-111
-113
-113
-108
-104
-102
-101
-100
-99
-97
-94
-91
-87
-84
-82
-79
-76
-73
-70
-69
-69
-69
-68
-68
-67
-67
-67
-67
-67
-67
-65
-63
-60
-55
-43
-34
-29
-26
-23
-21
-19
-17
-16
-14
-10
-6
0
6
13
19
27
35
42
49
55
59
64
73
89
106
121
127
131
133
135
136
134
131
127
123
119
114
109
103
99
94
85
69
52
37
25
16
9
4
1
0
-2
-5
-8
-10
-13
-16
-18
-22
-26
-29
-29
-28
-27
-26
-25
-25
-24
-23
-23
-22
-22
-22
-21
-21
-22
-23
-25
-27
-29
-30
-32
-33
-35
-37
-38
-39
-38
-37
-36
-35
-33
-30
-28
-24
-20
-18
-17
-18
-19
-20
-20
-21
-22
-23
-24
-25
-25
-26
-26
-26
-26
-25
-24
-23
-22
-21
-20
-19
-19
-18
-18
-19
-19
-19
-18
-17
-16
-16
-15
-15
-14
-13
-13
-12
-12
-12
-11
-10
-9
-8
-8
-7
-6
-5
-4
-2
-1
0
1
3
5
7
8
10
12
14
18
25
32
37
42
47
50
47
41
35
30
24
19
15
12
9
6
3
0
-4
-8
-12
-15
-17
-19
-21
-22
-23
-22
-21
-18
-15
-11
-5
17
81
176
302
452
598
689
694
632
470
282
115
4
-32
-44
-51
-56
-59
-62
-64
-66
-67
-68
-69
-70
-71
-71
-71
-72
-71
-70
-69
-68
-67
-66
-65
-63
-62
-60
-58
-56
-53
-51
-48
-46
-44
-42
-40
-39
-37
-36
-35
-34
-33
-31
-29
-28
-27
-25
-24
-22
-19
-13
0
9
15
20
26
36
51
63
70
75
80
85
91
98
103
106
108
110
113
116
120
124
127
131
134
136
138
137
136
133
129
124
113
96
83
73
62
48
29
14
2
-7
-12
-15
-18
-20
-21
-22
-23
-23
-23
-23
-22
-22
-21
-19
-18
-16
-14
-10
-7
-11
-17
-20
-21
-23
-25
-27
-28
-29
-30
-32
-33
-35
-36
-36
-36
-36
-36
-37
-37
-38
-38
-39
-40
-41
-43
-44
-44
-44
-43
-42
-40
-39
-37
-36
-34
-33
-31
-30
-29
-28
-28
-27
-25
-24
-24
-24
-24
-25
-25
-26
-26
-27
-28
-29
-29
-29
-29
-29
-29
-28
-27
-26
-24
-22
-20
-19
-18
-18
-17
-16
-15
-15
-14
-13
-12
-11
-10
-9
-9
-9
-8
-7
-6
-4
-3
-1
0
3
9
14
19
24
32
41
48
51
54
56
57
56
52
47
37
19
7
2
-1
-4
-6
-8
-9
-10
-11
-12
-12
-13
-14
-14
-14
-13
-12
-11
-8
-4
9
34
82
161
270
397
523
618
654
616
507
355
194
64
-14
-33
-37
-41
-43
-45
-46
-47
-47
-47
-47
-46
-45
-44
-42
-40
-39
-37
-36
-35
-34
-33
-32
-30
-28
-27
-25
-24
-22
-21
-19
-18
-17
-16
-15
-13
-11
-9
-7
-5
-3
-1
0
3
4
5
6
7
9
11
14
20
26
34
41
49
55
60
66
73
82
90
96
102
108
114
119
126
135
141
147
151
154
156
157
158
160
163
163
155
145
132
123
116
108
99
87
75
63
50
37
27
19
10
1
-5
-7
-7
-8
-8
-8
-9
-9
-9
-8
-8
-7
-6
-6
-5
-5
-4
-3
-3
-2
-2
-2
-2
-2
-2
-3
-4
-5
-6
-7
-8
-9
-9
-10
-11
-12
-12
-12
-13
-13
-13
-13
-13
-12
-10
-9
-8
-7
-6
-5
-2
0
3
4
3
3
2
1
0
-1
-1
1
4
7
9
12
13
14
14
13
11
8
5
0
-2
0
3
4
5
6
7
8
9
10
11
12
12
13
13
14
14
15
16
18
20
23
26
30
35
39
43
47
50
51
50
48
45
42
35
20
10
4
0
-2
-5
-8
-11
-17
-24
-27
-28
-30
-30
-31
-31
-29
-27
-24
-19
-12
5
45
117
226
361
490
561
562
498
356
198
62
-19
-34
-38
-40
-42
-43
-46
-48
-50
-51
-53
-55
-59
-63
-67
-68
-64
-58
-55
-53
-52
-50
-49
-47
-45
-44
-42
-41
-40
-38
-37
-35
-34
-32
-30
-28
-26
-23
-21
-18
-15
-13
-11
-9
-8
-6
-5
-3
-2
0
0
2
3
6
11
24
35
41
47
51
55
61
69
77
84
92
100
107
112
114
117
119
120
121
120
117
114
110
107
103
99
94
89
84
74
58
49
43
38
30
22
16
10
4
-1
-5
-9
-12
-18
-27
-35
-40
-43
-45
-46
-47
-46
-45
-44
-43
-41
-39
-37
-34
-32
-31
-31
-31
-31
-30
-31
-31
-32
-33
-34
-33
-31
-30
-28
-25
-23
-25
-30
-33
-37
-40
-42
-42
-41
-40
-38
-36
-34
-32
-30
-29
-30
-32
-34
-37
-41
-44
-45
-43
-41
-39
-38
-36
-34
-33
-33
-34
-35
-36
-37
-38
-39
-40
-42
-43
-44
-44
-45
-46
-46
-46
-46
-45
-45
-45
-45
-45
-46
-47
-49
-50
-47
-42
-39
-36
-34
-32
-31
-29
-28
-26
-25
-23
-22
-21
-20
-18
-14
-11
-15
-22
-29
-36
-45
-54
-60
-66
-71
-73
-73
-73
-73
-73
-73
-72
-72
-72
-72
-71
-70
-68
-65
-61
-55
-34
18
100
210
337
459
538
544
500
371
213
73
-21
-65
-86
-103
-123
-141
-153
-145
-132
-117
-109
-106
-104
-103
-101
-100
-99
-98
-97
-96
-94
-91
-91
-93
-96
-98
-91
-85
-82
-79
-77
-76
-76
-76
-76
-76
-76
-76
-77
-75
-66
-60
-57
-54
-51
-50
-48
-46
-44
-42
-40
-37
-32
-23
-14
-5
4
14
23
33
43
51
56
61
66
73
79
85
91
96
99
101
103
104
106
108
110
111
110
106
101
92
79
66
53
41
32
22
13
3
-3
-8
-12
-15
-18
-22
-26
-30
-34
-39
-43
-45
-47
-48
-48
-49
-51
-51
-52
-52
-51
-49
-47
-45
-42
-40
-38
-36
-34
-32
-31
-31
-30
-29
-29
-28
-28
-28
-28
-28
-28
-27
-27
-27
-27
-27
-26
-26
-26
-26
-26
-26
-25
-25
-24
-24
-23
-23
-22
-21
-20
-19
-19
-18
-17
-16
-15
-13
-13
-12
-12
-12
-12
-13
-14
-14
-15
-16
-17
-18
-18
-19
-19
-21
-22
-22
-21
-18
-14
-10
-8
-6
-5
-4
-3
-2
-1
0
0
0
1
2
3
3
4
4
4
4
4
5
7
9
11
15
24
31
36
43
51
62
70
77
80
75
66
56
46
37
29
18
8
4
2
0
0
-1
-2
-3
-3
-3
-2
-2
0
0
1
3
5
8
12
19
42
98
183
298
436
575
676
704
640
496
315
144
22
-18
-32
-28
-24
-20
-31
-44
-55
-61
-64
-67
-69
-70
-69
-66
-61
-56
-53
-50
-47
-44
-41
-38
-36
-35
-34
-33
-33
-32
-31
-31
-30
-29
-28
-27
-25
-24
-23
-22
-20
-18
-16
-14
-12
-10
-8
-5
-2
1
5
9
13
17
22
28
33
38
43
49
54
60
66
72
78
88
102
114
121
125
128
130
132
133
134
134
134
133
130
128
125
121
112
96
81
63
46
34
23
16
11
7
3
-2
-8
-13
-15
-17
-19
-21
-22
-23
-25
-26
-27
-29
-30
-31
-32
-33
-33
-34
-34
-33
-32
-31
-31
-31
-31
-31
-31
-31
-31
-32
-33
-34
-33
-33
-32
-32
-32
-32
-32
-32
-31
-31
-31
-32
-33
-33
-33
-33
-33
-33
-32
-32
-31
-30
-29
-29
-29
-29
-29
-29
-30
-30
-31
-31
-31
-31
-30
-30
-30
-31
-31
-31
-31
-31
-31
-32
-32
-33
-33
-33
-32
-32
-32
-31
-31
-30
-30
-30
-30
-31
-31
-31
-31
-31
-31
-31
-30
-29
-28
-27
-27
-26
-26
-25
-25
-24
-23
-23
-23
-23
-22
-21
-19
-17
-14
-11
-8
-6
-3
0
4
10
20
36
39
41
42
43
44
42
37
30
20
8
1
-1
-3
-4
-6
-8
-9
-11
-13
-15
-17
-19
-21
-23
-26
-30
-39
-43
-38
-24
15
92
202
337
483
614
674
670
587
432
263
115
16
-1
-7
-10
-14
-17
-21
-30
-48
-62
-70
-76
-75
-66
-56
-50
-46
-42
-38
-35
-33
-30
-29
-27
-26
-25
-24
-24
-24
-23
-23
-22
-21
-20
-19
-17
-14
-12
-9
-7
-5
-2
0
3
6
8
11
14
17
20
23
26
30
36
42
48
55
64
76
87
95
101
107
113
118
123
128
134
139
143
147
150
152
155
158
160
161
161
159
156
153
147
136
124
110
94
78
63
53
45
38
30
21
8
-4
-9
-11
-13
-15
-17
-18
-19
-20
-20
-20
-20
-21
-21
-22
-22
-22
-22
-22
-22
-22
-22
-22
-23
-23
-23
-23
-23
-22
-22
-22
-22
-22
-22
-22
-21
-20
-20
-19
-20
-20
-20
-20
-20
-19
-19
-20
-20
-20
-19
-18
-18
-17
-18
-18
-18
-18
-18
-18
-18
-19
-19
-19
-19
-18
-18
-17
-17
-16
-15
-13
-12
-10
-9
-8
-7
-5
-3
-2
0
0
1
1
2
2
3
2
2
1
1
1
1
0
0
-1
0
5
10
14
17
19
22
24
27
33
41
45
47
48
50
51
51
49
46
42
35
20
13
10
7
4
2
1
0
0
-1
-1
-2
-2
-2
-3
-3
-3
-5
-9
-2
16
56
120
207
312
422
514
546
537
465
345
215
106
35
0
-18
-34
-48
-56
-62
-62
-53
-47
-43
-40
-37
-34
-31
-29
-25
-18
-8
-4
-2
0
0
-3
-9
-13
-17
-20
-22
-22
-19
-16
-11
-7
-2
3
7
11
14
17
19
21
23
25
28
30
32
34
36
38
40
42
44
46
48
50
53
56
63
69
74
81
89
97
105
113
121
132
144
151
155
157
158
157
154
150
146
141
136
130
124
118
113
107
99
86
72
58
47
38
30
20
5
-1
-4
-6
-9
-10
-12
-13
-14
-14
-14
-15
-15
-16
-16
-17
-18
-20
-20
-18
-15
-12
-9
-7
-6
-6
-9
-12
-14
-15
-16
-18
-20
-21
-22
-23
-23
-23
-24
-24
-24
-23
-23
-22
-22
-22
-22
-21
-20
-20
-23
-27
-29
-30
-31
-32
-32
-33
-34
-34
-34
-34
-34
-34
-33
-33
-32
-32
-31
-31
-31
-30
-29
-28
-27
-28
-28
-29
-30
-30
-31
-31
-32
-33
-33
-33
-32
-31
-30
-28
-27
-26
-25
-24
-23
-23
-22
-21
-19
-17
-15
-13
-11
-9
-6
-3
2
8
8
4
-1
-7
-14
-20
-26
-35
-48
-53
-56
-58
-60
-62
-64
-66
-67
-69
-71
-73
-75
-78
-83
-87
-87
-83
-74
-48
9
98
218
357
492
588
613
546
401
220
52
-69
-116
-131
-123
-117
-114
-111
-109
-107
-107
-106
-106
-106
-106
-106
-106
-107
-108
-109
-109
-108
-105
-102
-101
-100
-99
-97
-96
-95
-93
-92
-91
-90
-89
-87
-86
-84
-82
-79
-73
-67
-61
-52
-44
-42
-41
-41
-40
-40
-39
-37
-33
-29
-21
-7
2
7
11
18
26
33
40
46
50
53
55
60
74
86
92
97
100
102
103
105
106
108
111
112
112
109
104
98
91
79
69
57
40
20
2
-7
-13
-17
-22
-26
-30
-33
-36
-38
-40
-42
-43
-44
-45
-46
-47
-47
-48
-49
-50
-51
-51
-51
-51
-51
-51
-51
-51
-51
-50
-50
-51
-47
-44
-42
-40
-38
-37
-36
-37
-37
-36
-36
-35
-36
-36
-37
-37
-37
-37
-37
-37
-37
-38
-38
-38
-38
-39
-40
-41
-42
-43
-44
-45
-46
-47
-48
-48
-48
-46
-44
-42
-40
-38
-37
-35
-33
-32
-30
-29
-28
-27
-27
-27
-28
-28
-29
-30
-31
-32
-33
-34
-34
-35
-35
-37
-39
-40
-39
-35
-30
-27
-25
-23
-21
-19
-16
-14
-12
-10
-8
-5
-1
6
15
23
30
33
36
38
41
41
34
24
10
-1
-10
-17
-22
-25
-28
-30
-31
-32
-31
-30
-30
-30
-29
-29
-28
-26
-24
-21
-17
-10
13
68
146
250
379
519
632
681
642
521
354
185
56
-18
-33
-37
-40
-42
-44
-46
-48
-50
-51
-53
-54
-56
-57
-58
-60
-61
-62
-62
-61
-60
-59
-57
-54
-51
-48
-44
-40
-37
-34
-31
-29
-27
-25
-24
-22
-20
-17
-15
-13
-11
-8
-4
0
5
9
12
14
17
19
22
26
30
34
38
44
49
56
62
69
78
84
89
94
98
102
107
112
117
121
125
129
132
136
139
143
146
148
146
142
136
128
116
104
89
70
55
43
35
26
10
-2
-9
-13
-16
-19
-20
-21
-21
-22
-22
-23
-25
-26
-26
-27
-27
-27
-28
-28
-27
-26
-26
-25
-25
-26
-27
-27
-28
-28
-29
-30
-31
-31
-31
-30
-30
-30
-29
-29
-29
-30
-30
-32
-33
-35
-36
-37
-37
-38
-38
-39
-39
-40
-40
-41
-42
-43
-43
-43
-43
-42
-41
-41
-40
-39
-38
-36
-36
-35
-36
-36
-37
-37
-38
-39
-41
-42
-43
-45
-46
-46
-47
-49
-51
-52
-53
-51
-48
-45
-42
-39
-38
-36
-33
-31
-29
-27
-25
-24
-23
-22
-21
-19
-18
-16
-14
-12
-7
-2
2
9
16
21
26
31
35
38
40
40
41
41
42
43
44
45
45
45
45
44
43
40
36
31
24
12
7
4
2
0
0
-1
-2
-4
-5
-6
-7
-8
-9
-11
-14
-21
-13
11
54
119
211
331
469
594
650
645
565
413
240
93
-1
-21
-27
-31
-34
-36
-38
-40
-41
-42
-43
-44
-45
-45
-45
-45
-46
-45
-44
-42
-40
-38
-36
-34
-32
-31
-30
-29
-27
-26
-23
-21
-19
-17
-15
-13
-11
-9
-6
-5
-3
-1
0
2
5
7
9
11
13
15
18
20
24
29
38
44
48
52
55
60
67
78
93
105
115
126
134
140
144
147
149
151
152
154
155
157
158
158
156
151
146
139
128
117
107
97
85
75
67
59
52
40
23
12
6
2
0
-2
-4
-6
-6
-7
-7
-8
-9
-10
-10
-10
-9
-10
-10
-11
-10
-10
-9
-9
-9
-10
-10
-11
-10
-10
-9
-9
-10
-10
-10
-9
-9
-9
-9
-9
-10
-10
-10
-10
-10
-11
-11
-11
-12
-11
-12
-12
-13
-13
-13
-13
-13
-12
-11
-11
-10
-10
-9
-8
-7
-6
-6
-5
-5
-5
-4
-4
-3
-3
-2
-2
-2
-1
-1
-1
-1
-1
-1
-1
-1
-1
-1
-1
-2
-1
-1
0
0
1
3
4
6
8
10
13
21
28
32
35
38
40
41
40
37
32
26
15
0
-9
-15
-18
-20
-21
-22
-23
-24
-26
-27
-27
-27
-28
-28
-27
-27
-25
-23
-20
-16
-12
6
60
141
246
365
474
527
523
452
314
160
30
-50
-71
-78
-85
-93
-107
-118
-122
-124
-115
-109
-106
-105
-103
-101
-100
-99
-97
-95
-93
-91
-89
-87
-86
-85
-83
-81
-79
-77
-75
-73
-71
-69
-67
-65
-63
-61
-58
-53
-45
-39
-34
-31
-29
-27
-24
-20
-15
-10
-5
0
5
9
12
15
18
22
26
31
36
42
51
61
71
81
90
96
100
103
107
111
114
117
120
123
125
126
126
125
123
119
115
106
92
81
73
65
54
40
28
19
9
1
-5
-10
-13
-14
-15
-16
-17
-18
-19
-20
-21
-21
-22
-22
-22
-22
-22
-21
-21
-20
-20
-19
-19
-19
-19
-19
-18
-18
-17
-17
-16
-16
-15
-14
-14
-14
-14
-14
-15
-15
-16
-17
-18
-19
-19
-20
-20
-20
-21
-21
-22
-22
-22
-22
-23
-23
-24
-24
-24
-23
-23
-23
-23
-22
-22
-21
-21
-21
-22
-22
-22
-21
-21
-20
-20
-20
-20
-20
-20
-20
-20
-20
-20
-20
-19
-19
-18
-16
-14
-11
-7
-3
2
7
12
20
30
37
41
43
40
33
25
16
10
3
-7
-19
-28
-31
-33
-35
-36
-37
-37
-36
-35
-33
-31
-30
-28
-26
-23
-19
-17
-14
-8
12
60
140
252
383
505
567
567
501
363
208
71
-20
-60
-75
-79
-81
-83
-86
-77
-66
-57
-57
-67
-77
-86
-90
-87
-81
-77
-75
-74
-73
-72
-71
-70
-69
-67
-65
-64
-62
-61
-59
-57
-56
-54
-51
-47
-43
-39
-35
-31
-29
-26
-24
-22
-20
-18
-16
-15
-14
-12
-9
-5
2
9
14
19
23
28
33
41
56
70
80
88
96
103
110
114
117
120
123
126
129
131
134
136
138
138
137
134
130
117
93
81
72
65
56
45
27
13
5
0
-4
-7
-12
-18
-23
-25
-25
-26
-27
-27
-28
-29
-29
-30
-31
-31
-31
-31
-31
-31
-31
-31
-32
-33
-33
-34
-34
-33
-32
-32
-31
-30
-28
-26
-25
-25
-27
-30
-33
-34
-36
-37
-39
-40
-41
-42
-43
-44
-45
-45
-44
-43
-43
-42
-42
-42
-41
-40
-39
-38
-38
-38
-36
-35
-33
-32
-32
-34
-35
-37
-39
-41
-46
-46
-43
-41
-39
-37
-36
-35
-34
-33
-32
-30
-29
-28
-28
-28
-30
-31
-32
-33
-35
-37
-38
-38
-35
-31
-27
-23
-17
-12
-6
-1
2
5
8
10
12
13
15
16
17
18
21
25
24
16
8
1
-3
-7
-14
-25
-31
-34
-36
-38
-40
-40
-41
-40
-40
-39
-38
-37
-36
-33
-32
-36
-43
-43
-24
18
88
187
314
457
586
644
639
554
394
216
62
-34
-60
-67
-71
-74
-77
-80
-83
-87
-92
-101
-104
-107
-108
-109
-106
-101
-95
-88
-81
-78
-76
-75
-73
-72
-70
-69
-67
-65
-63
-60
-58
-55
-54
-52
-50
-48
-45
-43
-41
-39
-37
-34
-32
-30
-28
-27
-25
-22
-16
-11
-7
-3
3
14
21
24
27
32
36
42
53
68
76
80
85
91
98
104
110
115
118
120
122
124
127
129
129
125
118
110
99
90
81
72
62
51
40
26
16
9
2
-6
-14
-18
-21
-24
-26
-29
-31
-33
-34
-35
-36
-36
-37
-37
-36
-35
-34
-34
-33
-33
-33
-33
-33
-34
-32
-29
-27
-24
-22
-20
-20
-21
-23
-25
-26
-27
-29
-30
-32
-32
-33
-33
-33
-34
-34
-34
-34
-33
-32
-32
-32
-31
-30
-29
-29
-30
-30
-29
-27
-25
-23
-21
-21
-19
-18
-15
-13
-11
-10
-10
-10
-10
-11
-12
-14
-17
-19
-21
-23
-25
-27
-31
-33
-34
-33
-29
-26
-23
-21
-19
-17
-15
-13
-11
-10
-9
-8
-7
-5
-4
-3
-3
-2
-2
-1
0
1
3
5
10
19
28
36
43
47
51
54
58
56
41
28
17
9
4
1
-1
-3
-4
-6
-8
-9
-10
-10
-10
-8
-7
-5
-4
-3
-1
1
4
8
12
20
48
110
199
314
441
554
608
604
535
398
244
112
23
-10
-20
-27
-32
-37
-44
-53
-53
-46
-40
-35
-31
-28
-29
-31
-35
-38
-42
-44
-39
-31
-28
-26
-24
-22
-21
-19
-17
-15
-13
-12
-10
-9
-8
-7
-6
-5
-3
0
2
4
7
10
13
16
19
22
25
28
33
37
41
44
48
51
55
59
62
67
72
79
86
93
100
106
112
117
122
127
131
134
138
141
143
145
145
144
142
139
134
127
110
94
82
71
57
37
20
8
5
3
2
1
1
0
-1
-2
-5
-8
-11
-13
-15
-17
-19
-21
-23
-23
-23
-22
-22
-21
-21
-21
-20
-19
-18
-17
-16
-15
-14
-13
-13
-13
-13
-14
-14
-15
-15
-15
-16
-16
-17
-17
-16
-16
-16
-16
-16
-17
-17
-17
-17
-18
-18
-18
-19
-18
-18
-17
-17
-18
-18
-17
-17
-16
-15
-15
-15
-15
-15
-15
-14
-14
-14
-14
-13
-11
-15
-18
-20
-22
-23
-23
-23
-22
-21
-19
-17
-15
-13
-12
-11
-11
-10
-10
-9
-8
-7
-6
-5
-4
-3
-3
-2
-1
0
0
1
3
5
8
13
24
34
41
45
49
51
52
50
46
41
34
27
16
8
1
-2
-4
-7
-9
-11
-13
-14
-15
-16
-16
-16
-15
-14
-13
-11
-9
-5
-1
3
24
67
132
222
334
451
544
578
535
421
262
100
-21
-64
-78
-65
-52
-42
-37
-39
-42
-44
-46
-47
-48
-48
-48
-48
-49
-49
-48
-47
-44
-41
-39
-38
-37
-36
-34
-32
-30
-28
-27
-25
-23
-22
-20
-18
-16
-14
-12
-11
-9
-7
-5
-3
-1
1
3
6
9
11
14
17
20
25
32
40
46
51
55
60
65
70
76
82
87
94
101
107
114
119
123
126
129
132
134
134
134
132
130
127
123
117
108
101
92
81
69
57
46
32
20
11
3
-4
-12
-18
-21
-22
-23
-24
-25
-25
-25
-25
-25
-26
-27
-28
-29
-30
-32
-33
-34
-36
-37
-38
-38
-39
-40
-41
-42
-43
-44
-45
-46
-47
-47
-48
-48
-48
-49
-49
-49
-49
-49
-50
-50
-51
-52
-52
-52
-53
-54
-55
-56
-56
-57
-57
-59
-61
-63
-65
-66
-65
-63
-60
-58
-56
-55
-53
-52
-50
-49
-48
-48
-48
-47
-46
-46
-45
-45
-45
-45
-45
-44
-44
-43
-43
-43
-43
-43
-43
-43
-43
-43
-43
-43
-43
-42
-42
-41
-40
-40
-40
-39
-39
-38
-38
-37
-37
-37
-36
-35
-33
-31
-29
-26
-21
-12
-5
-1
2
4
6
6
4
1
-1
-4
-7
-11
-15
-20
-28
-34
-38
-42
-46
-50
-54
-56
-57
-58
-58
-59
-59
-60
-60
-59
-60
-61
-60
-52
-30
8
72
167
290
425
539
595
569
463
306
142
18
-32
-49
-57
-60
-72
-99
-109
-109
-100
-95
-91
-88
-85
-82
-80
-78
-76
-74
-71
-68
-65
-63
-62
-60
-58
-56
-53
-51
-49
-48
-47
-45
-44
-42
-41
-39
-38
-36
-34
-32
-30
-28
-26
-23
-19
-15
-12
-8
-4
4
17
24
28
30
33
35
38
42
47
53
60
67
75
85
94
105
120
130
135
139
143
146
150
159
167
170
171
171
165
160
155
149
142
132
115
97
82
72
60
49
36
24
14
6
1
-1
-3
-5
-6
-8
-9
-9
-9
-9
-10
-10
-11
-12
-12
-13
-14
-15
-15
-16
-15
-15
-14
-14
-14
-14
-14
-14
-13
-13
-13
-12
-12
-11
-10
-10
-9
-8
-7
-7
-6
-5
-5
-5
-5
-5
-6
-6
-7
-8
-9
-10
-10
-10
-10
-11
-12
-13
-14
-15
-19
-19
-15
-12
-11
-9
-7
-6
-5
-5
-4
-3
-1
-8
-14
-17
-20
-22
-23
-23
-23
-22
-21
-19
-18
-17
-16
-15
-14
-14
-14
-14
-13
-12
-11
-9
-8
-8
-7
-7
-7
-6
-5
-4
-3
-2
1
3
0
-5
-9
-13
-17
-19
-18
-16
-13
-8
-1
8
12
13
15
16
17
17
18
18
18
18
18
18
17
15
14
13
12
9
9
17
24
31
36
41
46
53
58
62
66
68
65
58
48
34
25
20
15
10
5
-1
-10
-12
-13
-14
-15
-15
-15
-15
-15
-15
-15
-14
-11
-8
-4
11
65
149
262
400
546
663
713
668
537
356
176
39
-39
-51
-53
-55
-56
-57
-58
-58
-58
-59
-59
-60
-61
-61
-61
-61
-61
-61
-61
-61
-61
-62
-62
-63
-64
-64
-64
-64
-64
-64
-63
-62
-61
-59
-57
-55
-53
-52
-51
-50
-48
-47
-45
-43
-41
-39
-38
-36
-34
-32
-29
-24
-13
-6
4
16
26
38
50
58
67
73
77
81
86
91
97
106
116
128
138
140
141
142
142
143
141
137
132
127
120
113
106
97
87
76
66
58
49
41
31
19
10
2
-4
-11
-18
-22
-24
-25
-26
-27
-28
-29
-29
-30
-31
-31
-32
-33
-34
-35
-35
-36
-36
-37
-37
-37
-37
-37
-38
-40
-43
-42
-38
-34
-32
-30
-29
-27
-25
-24
-22
-21
-21
-21
-21
-22
-24
-25
-27
-28
-30
-31
-32
-33
-34
-35
-36
-37
-38
-40
-41
-41
-42
-43
-44
-44
-43
-42
-41
-41
-41
-41
-41
-40
-40
-41
-41
-43
-44
-45
-47
-51
-56
-49
-44
-41
-38
-36
-35
-35
-36
-37
-38
-39
-40
-40
-41
-43
-44
-43
-42
-39
-36
-35
-34
-33
-33
-31
-30
-29
-29
-28
-28
-27
-26
-25
-25
-24
-24
-24
-24
-24
-24
-23
-23
-22
-21
-19
-17
-15
-13
-11
-9
-7
-4
-2
0
3
5
9
13
17
20
22
20
18
14
8
1
-10
-21
-27
-31
-34
-37
-40
-41
-41
-41
-40
-38
-37
-35
-32
-30
-31
-35
-41
-46
-39
-17
31
113
230
370
510
614
653
609
490
328
162
32
-42
-53
-55
-58
-59
-60
-61
-61
-60
-60
-59
-58
-56
-54
-52
-51
-50
-49
-47
-44
-41
-39
-37
-35
-34
-33
-31
-31
-30
-30
-29
-28
-27
-26
-25
-24
-22
-20
-17
-14
-12
-9
-7
-4
-1
1
4
7
10
13
16
19
22
25
28
33
37
42
46
51
59
70
81
92
103
113
121
129
135
140
143
145
147
148
150
150
150
150
149
147
143
139
134
127
114
102
89
77
66
52
33
20
13
8
3
-1
-5
-8
-10
-12
-14
-16
-17
-17
-16
-15
-14
-12
-12
-11
-10
-9
-8
-8
-8
-8
-8
-8
-8
-8
-9
-10
-10
-11
-11
-11
-11
-11
-12
-12
-13
-13
-14
-15
-15
-16
-16
-16
-16
-16
-16
-16
-16
-16
-16
-16
-16
-17
-17
-18
-18
-18
-18
-18
-18
-18
-18
-18
-18
-18
-18
-17
-16
-16
-15
-14
-14
-13
-12
-10
-9
-8
-7
-7
-6
-5
-3
-2
-3
-5
-7
-10
-12
-13
-15
-17
-19
-21
-22
-23
-23
-23
-23
-23
-22
-21
-20
-18
-17
-15
-13
-11
-9
-6
-3
-1
1
5
8
13
21
26
26
26
26
27
27
21
11
4
0
-4
-8
-12
-16
-20
-24
-28
-32
-36
-39
-42
-44
-45
-45
-45
-44
-43
-41
-37
-32
-12
49
139
254
380
488
539
535
468
337
192
67
-13
-32
-37
-41
-43
-45
-48
-51
-54
-56
-59
-63
-70
-75
-74
-69
-62
-58
-54
-52
-49
-47
-45
-43
-41
-38
-36
-33
-31
-29
-28
-27
-26
-25
-24
-23
-21
-19
-18
-17
-15
-14
-13
-12
-11
-9
-7
-5
-2
3
9
15
22
27
31
36
40
43
45
47
48
51
54
59
66
75
84
94
104
111
117
121
124
126
128
129
131
132
133
134
136
137
135
128
119
103
85
66
45
26
9
-5
-11
-13
-14
-16
-17
-18
-20
-21
-22
-23
-23
-24
-24
-24
-23
-23
-22
-22
-22
-21
-21
-20
-20
-20
-20
-19
-18
-17
-17
-16
-16
-16
-15
-14
-13
-12
-11
-8
-7
-9
-14
-16
-18
-19
-20
-21
-22
-22
-23
-23
-23
-23
-23
-23
-23
-23
-24
-24
-25
-26
-27
-27
-27
-27
-28
-28
-29
-30
-30
-30
-32
-34
-36
-38
-39
-37
-35
-32
-29
-27
-25
-22
-20
-18
-17
-17
-17
-18
-20
-21
-22
-24
-26
-29
-33
-37
-42
-48
-48
-38
-32
-27
-23
-19
-15
-12
-9
-5
-2
2
6
9
14
23
33
38
41
40
31
21
10
4
-3
-16
-23
-26
-29
-32
-34
-36
-37
-38
-38
-38
-38
-38
-38
-37
-35
-33
-31
-29
-26
-14
20
77
164
279
414
539
601
598
520
373
211
69
-21
-49
-58
-63
-65
-66
-67
-68
-68
-68
-68
-68
-69
-68
-68
-69
-70
-70
-69
-68
-67
-67
-66
-66
-65
-64
-62
-60
-59
-58
-56
-54
-52
-50
-48
-45
-43
-41
-39
-37
-36
-34
-33
-31
-30
-29
-28
-26
-24
-21
-13
0
8
13
16
20
24
28
34
43
49
54
59
64
72
83
98
107
113
118
123
128
132
135
138
141
142
142
141
138
135
131
125
116
107
97
88
78
64
48
31
16
7
1
-2
-6
-9
-11
-13
-15
-16
-18
-19
-19
-20
-21
-23
-24
-25
-25
-24
-22
-20
-19
-17
-15
-13
-13
-13
-14
-15
-16
-17
-18
-19
-20
-20
-19
-18
-16
-14
-11
-9
-8
-11
-16
-22
-30
-36
-40
-44
-47
-48
-48
-46
-44
-43
-42
-41
-40
-40
-40
-39
-39
-39
-40
-40
-41
-42
-43
-44
-46
-48
-50
-51
-51
-50
-48
-46
-45
-44
-42
-41
-40
-39
-38
-37
-37
-37
-37
-38
-39
-39
-40
-40
-40
-40
-40
-40
-40
-39
-39
-40
-41
-41
-42
-41
-39
-37
-35
-33
-32
-30
-29
-28
-28
-27
-26
-25
-24
-23
-22
-21
-19
-18
-16
-14
-11
-6
0
4
10
21
30
33
35
34
25
12
-2
-16
-29
-35
-37
-40
-42
-44
-46
-48
-48
-48
-49
-49
-48
-47
-46
-44
-42
-40
-37
-34
-19
22
86
177
291
420
548
642
669
607
465
280
103
-31
-97
-108
-95
-66
-44
-35
-35
-42
-52
-66
-77
-84
-84
-76
-67
-58
-52
-50
-48
-47
-46
-44
-42
-40
-38
-35
-32
-28
-22
-17
-13
-11
-10
-8
-7
-6
-6
-5
-5
-5
-6
-6
-7
-8
-9
-10
-11
-12
-13
-12
-9
-3
5
22
35
43
48
52
57
63
73
84
94
101
108
115
125
136
146
153
158
161
164
166
168
170
171
174
175
176
174
169
162
150
132
117
101
83
66
50
34
26
22
19
16
14
11
8
6
4
3
1
0
0
0
0
-1
-1
-2
-2
-3
-3
-4
-4
-4
-4
-4
-3
-2
-2
-1
-1
-2
-3
-3
-3
-3
-3
-4
-4
-5
-5
-5
-5
-5
-5
-5
-6
-6
-6
-7
-8
-10
-11
-11
-11
-11
-12
-12
-13
-13
-13
-14
-14
-15
-16
-17
-17
-16
-16
-16
-17
-17
-16
-16
-16
-16
-16
-16
-16
-16
-16
-16
-17
-17
-17
-17
-16
-16
-17
-17
-17
-17
-17
-18
-18
-19
-20
-20
-20
-20
-20
-21
-22
-22
-23
-23
-24
-26
-27
-28
-29
-29
-29
-29
-29
-28
-27
-24
-21
-19
-17
-15
-12
-8
-4
-1
0
1
2
3
5
7
10
14
19
23
27
31
32
30
26
22
16
8
0
-8
-15
-18
-19
-20
-20
-21
-21
-22
-22
-23
-24
-25
-27
-28
-29
-32
-38
-30
-9
39
111
207
324
451
562
611
605
527
385
230
100
13
-32
-47
-49
-51
-53
-54
-56
-56
-56
-56
-56
-56
-54
-52
-50
-47
-45
-43
-42
-40
-38
-36
-34
-33
-31
-29
-27
-25
-24
-23
-22
-21
-20
-19
-18
-17
-16
-15
-14
-12
-10
-8
-7
-5
-3
-1
0
4
9
15
19
23
27
31
36
41
46
50
57
65
76
85
92
98
103
109
116
125
132
137
142
145
149
152
155
159
162
161
156
148
139
126
113
100
88
78
68
57
46
36
26
12
5
1
-1
-4
-6
-8
-10
-11
-12
-13
-14
-15
-16
-16
-16
-15
-15
-14
-14
-13
-13
-13
-13
-14
-14
-14
-14
-14
-15
-15
-15
-16
-16
-16
-16
-16
-16
-17
-18
-18
-19
-19
-20
-20
-21
-21
-21
-21
-20
-20
-20
-20
-21
-21
-21
-21
-22
-22
-22
-22
-22
-22
-22
-22
-22
-22
-22
-23
-23
-24
-25
-25
-25
-24
-24
-23
-23
-22
-20
-19
-19
-18
-18
-18
-18
-17
-17
-17
-17
-17
-17
-15
-14
-13
-13
-15
-16
-17
-18
-19
-21
-23
-25
-26
-25
-21
-15
-11
-7
-3
1
6
11
15
20
24
28
33
35
32
26
19
10
0
-9
-15
-18
-21
-23
-25
-27
-29
-31
-33
-34
-34
-34
-34
-34
-33
-32
-30
-28
-27
-25
-23
-10
38
113
216
337
456
537
545
505
381
230
94
0
-42
-54
-61
-65
-67
-69
-71
-72
-75
-78
-81
-81
-79
-75
-72
-68
-65
-64
-64
-65
-66
-68
-70
-71
-66
-58
-54
-53
-51
-50
-48
-47
-45
-43
-41
-39
-37
-36
-35
-34
-33
-32
-31
-29
-27
-25
-21
-17
-12
-7
-3
0
4
8
13
18
23
30
37
44
51
58
63
67
72
81
101
115
123
128
131
133
132
132
131
130
130
128
127
125
121
117
112
106
98
78
55
35
29
24
19
13
3
-7
-11
-13
-15
-19
-23
-27
-30
-33
-36
-39
-40
-41
-40
-40
-40
-42
-42
-38
-35
-33
-30
-29
-28
-27
-27
-26
-24
-22
-22
-22
-23
-24
-25
-26
-27
-29
-27
-25
-22
-20
-17
-15
-16
-18
-22
-26
-29
-32
-35
-38
-40
-41
-42
-43
-43
-44
-45
-46
-47
-46
-44
-42
-41
-40
-40
-39
-38
-36
-36
-36
-36
-37
-38
-38
-39
-40
-42
-43
-44
-45
-45
-45
-45
-45
-45
-45
-45
-44
-44
-44
-44
-43
-43
-42
-42
-43
-43
-43
-42
-42
-42
-43
-44
-45
-46
-48
-52
-45
-38
-35
-32
-28
-25
-23
-21
-19
-18
-15
-14
-12
-11
-10
-9
-7
-5
-4
-3
-2
0
1
3
4
3
0
-4
-10
-17
-30
-38
-42
-46
-49
-51
-52
-52
-52
-51
-50
-48
-46
-44
-44
-48
-53
-58
-64
-64
-57
-39
7
78
175
296
432
558
627
627
563
418
246
88
-20
-65
-82
-88
-88
-88
-88
-89
-89
-89
-89
-89
-89
-89
-89
-89
-89
-89
-88
-88
-87
-86
-86
-85
-83
-82
-81
-79
-77
-70
-62
-52
-38
-29
-25
-21
-17
-12
-8
-4
0
5
10
13
15
17
19
20
22
24
26
28
31
35
42
56
66
72
78
82
87
92
99
106
115
125
133
141
147
154
162
168
172
175
178
180
180
179
177
174
170
163
146
130
118
109
101
93
82
67
50
37
28
19
9
1
-4
-6
-6
-7
-7
-6
-6
-6
-6
-6
-7
-8
-9
-10
-11
-12
-13
-14
-15
-16
-17
-19
-23
-27
-29
-28
-26
-24
-23
-21
-19
-17
-16
-17
-18
-20
-21
-21
-21
-22
-23
-24
-25
-26
-27
-27
-28
-29
-29
-29
-28
-28
-28
-29
-29
-29
-29
-29
-29
-29
-29
-28
-27
-26
-26
-25
-24
-24
-23
-23
-23
-23
-22
-20
-18
-19
-23
-28
-31
-33
-35
-37
-39
-41
-42
-43
-44
-44
-43
-41
-40
-38
-35
-33
-30
-27
-25
-23
-22
-21
-20
-19
-18
-17
-17
-16
-15
-14
-13
-12
-11
-10
-10
-9
-8
-7
-5
-3
1
10
14
17
19
20
22
23
23
24
25
25
25
24
22
19
16
13
10
7
1
-4
-10
-16
-21
-26
-30
-34
-38
-42
-44
-46
-47
-49
-52
-57
-64
-67
-71
-74
-58
-11
69
183
323
474
602
652
643
546
376
184
22
-74
-93
-99
-93
-89
-88
-87
-87
-86
-85
-83
-82
-81
-79
-77
-75
-74
-72
-71
-70
-68
-67
-65
-63
-62
-61
-60
-59
-57
-56
-55
-55
-54
-53
-52
-50
-49
-48
-46
-40
-33
-25
-20
-17
-15
-13
-11
-9
-6
-5
-3
-2
0
2
7
16
26
34
40
46
52
59
68
79
89
96
103
110
117
123
128
132
135
137
138
139
141
143
144
145
143
139
133
122
105
90
73
59
47
36
27
20
14
8
3
-2
-7
-11
-15
-19
-22
-24
-26
-28
-29
-30
-30
-31
-31
-32
-32
-32
-31
-30
-30
-29
-28
-26
-24
-24
-28
-31
-32
-33
-34
-35
-35
-36
-37
-37
-37
-36
-36
-36
-36
-37
-37
-37
-38
-38
-38
-39
-39
-38
-38
-38
-39
-39
-39
-40
-40
-41
-42
-44
-45
-46
-46
-46
-47
-48
-49
-50
-50
-50
-49
-48
-47
-45
-42
-40
-38
-36
-36
-35
-34
-33
-33
-32
-31
-31
-30
-30
-29
-29
-29
-30
-30
-30
-30
-30
-30
-30
-29
-29
-28
-28
-27
-26
-25
-24
-24
-24
-24
-24
-23
-22
-21
-20
-18
-17
-14
-10
-6
-2
1
7
13
20
27
30
33
35
37
39
41
40
37
32
26
20
11
4
-1
-8
-17
-22
-26
-28
-30
-32
-32
-33
-33
-33
-33
-32
-30
-27
-23
-17
-10
18
71
148
252
376
503
586
593
544
406
237
80
-26
-58
-58
-36
-26
-22
-20
-32
-38
-42
-44
-47
-49
-51
-52
-53
-54
-54
-54
-52
-50
-47
-44
-41
-38
-36
-34
-33
-32
-31
-30
-28
-26
-24
-22
-20
-18
-15
-14
-12
-11
-9
-7
-4
-1
1
4
6
9
13
17
21
25
29
35
41
48
55
61
66
70
77
86
99
108
115
120
124
128
131
133
135
138
140
142
143
144
144
143
141
138
135
130
120
104
94
85
76
64
49
35
19
8
1
-5
-14
-17
-20
-22
-24
-25
-27
-28
-29
-30
-32
-33
-34
-35
-35
-35
-34
-34
-35
-35
-36
-37
-39
-41
-41
-41
-39
-36
-33
-29
-22
-19
-18
-16
-13
-22
-28
-31
-34
-36
-38
-39
-40
-40
-40
-39
-37
-36
-34
-32
-30
-31
-33
-34
-35
-36
-37
-37
-38
-39
-40
-41
-42
-43
-43
-44
-47
-47
-39
-34
-29
-24
-20
-18
-17
-13
-8
-17
-24
-28
-31
-34
-36
-35
-33
-29
-26
-23
-22
-20
-18
-17
-15
-14
-14
-14
-13
-13
-12
-11
-10
-10
-9
-9
-8
-8
-7
-7
-7
-6
-6
-5
-4
-1
7
15
27
39
45
48
51
53
54
54
52
49
46
41
35
25
18
12
6
-1
-6
-11
-14
-16
-16
-13
-9
-6
-2
0
2
0
-2
-6
-10
-17
-16
-2
33
101
193
303
419
523
568
561
481
331
169
38
-16
-35
-28
-18
-11
-19
-24
-27
-29
-31
-32
-34
-34
-34
-35
-36
-36
-35
-34
-31
-29
-28
-26
-25
-23
-21
-20
-19
-18
-17
-16
-14
-13
-12
-11
-9
-7
-5
-3
-2
-1
0
1
3
5
7
10
14
17
20
22
24
26
29
32
37
43
52
64
81
99
115
124
129
133
138
142
145
148
151
155
157
158
159
159
160
160
161
162
162
161
157
152
146
133
113
99
87
76
64
53
39
30
25
21
17
14
10
6
2
0
-3
-6
-9
-11
-14
-15
-16
-16
-15
-15
-15
-15
-15
-14
-13
-13
-12
-12
-13
-13
-14
-15
-16
-17
-18
-19
-20
-21
-21
-21
-20
-18
-17
-16
-15
-14
-13
-11
-10
-10
-11
-13
-17
-20
-22
-24
-27
-30
-32
-33
-34
-35
-35
-35
-35
-36
-35
-35
-35
-35
-36
-36
-35
-34
-34
-33
-33
-33
-33
-33
-33
-33
-34
-35
-36
-37
-38
-39
-40
-41
-42
-42
-42
-42
-41
-41
-42
-42
-42
-43
-43
-44
-45
-46
-46
-47
-47
-46
-44
-43
-41
-38
-36
-34
-31
-29
-27
-25
-24
-22
-19
-17
-15
-13
-12
-11
-11
-12
-13
-15
-17
-20
-23
-28
-35
-44
-55
-64
-71
-78
-82
-85
-87
-89
-91
-93
-96
