202
246
291
339
363
374
380
383
386
390
395
400
406
413
425
443
462
472
479
485
491
494
494
490
481
471
461
453
443
431
421
412
405
398
391
384
376
368
359
351
343
337
332
326
320
313
307
302
297
292
288
285
283
280
276
271
266
262
259
258
255
249
232
198
181
173
167
163
159
155
152
150
147
145
142
139
137
132
127
124
121
118
116
116
117
117
114
111
107
105
104
103
102
100
97
92
86
75
68
70
74
80
86
79
73
68
64
61
59
58
58
57
54
52
51
53
62
74
86
96
108
120
127
128
129
130
131
132
133
132
124
115
107
101
94
87
78
67
57
47
40
38
41
47
55
63
73
86
102
112
121
128
133
136
136
136
136
136
136
136
136
135
133
127
120
109
90
79
71
67
66
71
80
94
114
144
194
253
278
292
301
288
247
182
102
17
-63
-142
-214
-235
-245
-237
-205
-171
-138
-114
-96
-78
-60
-43
-33
-27
-22
-18
-15
-14
-14
-15
-17
-20
-26
-32
-38
-44
-51
-60
-68
-76
-84
-92
-100
-106
-109
-106
-100
-93
-83
-68
-47
-23
-3
-2
-1
0
0
0
-4
-11
-18
-23
-27
-31
-36
-40
-42
-42
-40
-37
-34
-30
-23
-16
-4
15
31
43
52
59
60
54
43
31
13
-8
-23
-33
-43
-53
-63
-71
-75
-79
-83
-87
-91
-95
-97
-98
-99
-100
-100
-100
-98
-96
-93
-91
-89
-85
-81
-78
-71
-56
-41
-2
55
119
161
175
164
132
72
-3
-83
-153
-214
-261
-277
-268
-238
-195
-167
-152
-144
-138
-135
-133
-130
-127
-124
-122
-121
-119
-118
-116
-115
-113
-111
-109
-107
-106
-106
-106
-108
-111
-113
-113
-114
-114
-115
-115
-116
-116
-116
-118
-119
-121
-123
-123
-124
-124
-122
-118
-112
-106
-99
-91
-83
-75
-67
-59
-51
-44
-37
-30
-24
-18
-14
-11
-7
-3
0
5
9
12
16
19
23
26
30
34
38
42
45
44
40
32
21
0
-32
-51
-63
-71
-71
-62
-50
-37
-20
-11
-6
-3
0
2
3
4
4
4
3
1
-2
-6
-10
-14
-18
-24
-29
-33
-34
-31
-25
-19
-12
-2
2
-4
-15
-21
-25
-30
-34
-37
-38
-36
-33
-28
-24
-20
-16
-9
-2
2
3
0
-7
-14
-21
-32
-39
-35
-28
-24
-20
-17
-14
-13
-13
-14
-16
-18
-20
-21
-22
-24
-26
-28
-30
-33
-36
-38
-39
-40
-40
-38
-37
-36
-36
-35
-34
-31
-28
-24
-20
-9
15
58
107
167
244
329
398
406
379
262
97
-74
-208
-258
-276
-282
-277
-259
-207
-144
-71
2
50
66
53
36
23
24
41
52
60
68
74
74
70
64
58
54
50
47
44
41
40
42
45
51
58
70
86
91
94
95
96
96
95
95
94
91
87
83
78
75
71
67
63
61
61
64
70
78
87
95
103
111
119
125
130
134
139
142
145
147
150
152
154
154
154
152
150
147
144
141
139
137
135
133
130
125
121
116
113
111
108
104
94
76
69
67
64
60
61
61
61
61
62
63
63
65
68
73
79
86
95
115
149
196
241
298
371
454
519
526
494
366
167
-46
-224
-328
-343
-315
-235
-162
-109
-91
-83
-77
-71
-73
-91
-101
-107
-112
-116
-121
-125
-131
-136
-141
-145
-150
-157
-167
-184
-189
-190
-191
-193
-195
-197
-196
-190
-182
-173
-167
-162
-155
-149
-143
-141
-141
-144
-148
-152
-157
-163
-174
-175
-168
-162
-156
-150
-141
-131
-112
-89
-79
-72
-68
-65
-66
-71
-78
-83
-86
-89
-93
-97
-100
-103
-105
-106
-106
-104
-103
-100
-97
-92
-86
-79
-64
-48
-25
-8
0
6
-5
-15
-20
-24
-29
-35
-42
-49
-57
-67
-76
-81
-86
-92
-98
-102
-105
-108
-112
-110
-96
-83
-70
-61
-54
-49
-44
-40
-37
-36
-37
-40
-42
-45
-49
-51
-44
-32
-21
-11
-3
0
3
6
10
14
16
14
10
5
0
-8
-12
-7
5
44
107
183
256
290
285
224
101
-34
-142
-210
-233
-226
-202
-168
-151
-126
-83
-52
-44
-39
-36
-30
-25
-19
-14
-8
-3
1
6
10
12
15
20
28
40
53
63
71
82
94
107
123
135
145
155
161
165
167
170
172
175
179
183
186
190
195
200
205
209
213
221
230
217
205
195
192
195
203
211
219
228
240
259
280
289
295
299
302
303
302
298
293
286
273
253
236
216
190
168
153
145
138
132
123
104
77
56
42
31
21
12
3
-8
-16
-21
-25
-29
-32
-36
-53
-81
-108
-116
-107
-92
-82
-80
-78
-77
-73
-67
-62
-56
-57
-73
-96
-117
-125
-130
-134
-138
-142
-147
-154
-164
-166
-163
-156
-160
-182
-195
-204
-203
-178
-139
-88
-21
56
115
123
100
28
-70
-174
-247
-292
-327
-348
-356
-342
-299
-258
-224
-210
-199
-189
-180
-180
-186
-192
-199
-199
-192
-186
-182
-178
-177
-180
-187
-197
-213
-235
-245
-250
-254
-257
-259
-259
-257
-253
-249
-243
-237
-227
-216
-205
-191
-176
-167
-159
-152
-149
-152
-160
-173
-193
-209
-219
-219
-209
-193
-177
-165
-150
-132
-114
-101
-94
-89
-85
-82
-80
-79
-78
-76
-74
-73
-74
-78
-84
-93
-108
-130
-140
-147
-153
-156
-156
-151
-143
-133
-114
-96
-90
-87
-83
-73
-62
-54
-46
-38
-31
-28
-26
-26
-27
-27
-26
-24
-21
-12
-2
5
12
19
26
32
36
41
54
69
75
79
82
82
78
71
62
46
24
11
2
3
17
31
45
54
61
69
78
89
105
127
166
230
316
410
483
491
458
320
139
-40
-195
-275
-302
-290
-255
-204
-136
-63
1
53
86
97
107
117
122
127
131
134
136
136
135
132
127
122
117
112
106
100
94
90
87
85
84
82
80
78
76
75
76
79
85
93
101
109
122
132
138
142
143
145
146
148
151
153
156
157
158
159
161
164
167
169
171
174
177
180
182
183
181
177
172
165
153
129
112
100
89
78
71
67
63
59
55
50
47
43
41
38
35
33
30
29
30
32
34
37
40
42
43
46
50
53
55
56
55
52
48
43
38
31
19
17
24
32
40
40
30
23
17
12
6
0
-6
-14
-25
-31
-27
-15
1
29
81
149
231
302
334
330
277
155
-12
-197
-354
-439
-448
-414
-330
-276
-256
-240
-200
-137
-74
-24
-1
7
10
4
-6
-13
-18
-22
-25
-27
-30
-33
-36
-40
-43
-49
-59
-59
-51
-45
-41
-37
-34
-33
-34
-38
-45
-53
-69
-87
-95
-102
-79
-58
-45
-33
-23
-16
-9
7
30
43
50
55
60
62
65
70
76
63
50
40
30
21
5
-20
-34
-39
-44
-48
-51
-53
-56
-58
-60
-61
-62
-64
-66
-69
-77
-92
-104
-111
-100
-91
-85
-81
-76
-72
-69
-64
-58
-55
-60
-70
-78
-85
-93
-99
-104
-110
-115
-119
-119
-114
-106
-98
-88
-80
-75
-67
-60
-56
-51
-47
-50
-53
-56
-55
-45
-39
-35
-32
-29
-27
-24
-22
-19
-17
-14
-9
11
49
92
129
163
173
176
168
123
45
-56
-166
-267
-345
-378
-388
-375
-338
-292
-261
-245
-221
-172
-111
-51
-4
10
5
-12
-37
-47
-48
-48
-48
-48
-47
-47
-47
-47
-47
-46
-44
-41
-37
-34
-29
-18
-7
8
27
43
61
83
99
108
115
114
104
95
87
80
73
68
63
59
57
58
63
69
77
88
99
107
113
119
126
134
149
161
163
165
163
153
142
130
120
109
92
71
54
46
41
38
38
45
53
60
68
74
79
84
89
95
98
92
82
78
74
71
68
65
62
61
60
60
60
61
61
63
65
68
71
75
82
101
113
120
126
129
129
126
121
115
105
84
71
64
58
55
54
54
54
53
52
51
50
50
54
59
61
63
65
67
69
71
72
72
71
70
69
69
67
65
63
55
28
11
7
4
2
1
0
-1
-2
-4
-6
-8
-11
-20
-29
-32
-34
-33
-28
-24
-21
-19
-18
-19
-22
-26
-33
-31
-2
50
116
181
236
269
269
237
143
15
-120
-240
-328
-358
-368
-351
-302
-233
-169
-153
-149
-147
-143
-140
-134
-114
-85
-75
-71
-75
-81
-89
-97
-97
-89
-78
-61
-47
-36
-31
-26
-22
-24
-38
-45
-49
-53
-56
-59
-61
-64
-66
-69
-71
-74
-76
-77
-78
-80
-82
-84
-86
-88
-90
-91
-91
-91
-91
-90
-89
-87
-85
-83
-81
-78
-72
-65
-54
-36
-20
-13
-9
-6
-10
-18
-27
-39
-48
-53
-57
-60
-63
-66
-69
-72
-77
-86
-103
-117
-127
-127
-117
-107
-95
-84
-74
-64
-55
-50
-46
-43
-40
-37
-35
-32
-26
-19
-25
-45
-82
-135
-183
-198
-190
-166
-115
-84
-75
-70
-65
-61
-57
-53
-48
-43
-37
-33
-30
-27
-23
-17
-28
-46
-61
-67
-71
-74
-76
-76
-75
-73
-71
-69
-66
-63
-60
-57
-55
-54
-53
-52
-51
-51
-50
-51
-52
-51
-50
-49
-47
-45
-45
-44
-42
-40
-37
-34
-25
-10
-4
-1
1
2
0
-6
-14
-24
-38
-45
-52
-61
-73
-83
-92
-95
-89
-78
-67
-55
-46
-39
-27
-8
2
8
14
17
19
19
18
17
16
14
12
13
19
26
34
34
27
17
2
-14
-32
-53
-63
-65
-67
-68
-65
-59
-56
-53
-51
-49
-46
-44
-41
-37
-32
-26
-16
-7
16
64
135
225
320
388
394
352
214
33
-148
-287
-347
-354
-336
-289
-236
-189
-148
-106
-63
-47
-41
-41
-50
-62
-73
-79
-84
-83
-75
-62
-46
-33
-20
-6
3
9
13
14
13
12
12
11
10
10
9
9
8
7
5
3
2
1
0
0
-3
-6
-8
-8
-6
-2
1
8
21
29
32
34
36
37
39
40
42
44
46
48
50
52
57
65
74
82
90
97
103
108
108
102
92
80
69
61
50
24
-1
-27
-51
-74
-96
-110
-125
-136
-145
-143
-117
-82
-52
-41
-33
-28
-24
-21
-22
-25
-30
-35
-42
-42
-37
-29
-32
-50
-60
-62
-64
-66
-68
-68
-67
-63
-58
-52
-44
-32
-30
-34
-35
-36
-37
-39
-39
-40
-41
-42
-43
-45
-46
-48
-50
-52
-58
-59
-53
-37
-13
24
78
146
216
265
268
236
136
0
-150
-280
-360
-375
-371
-334
-287
-238
-181
-116
-52
-5
10
9
-12
-36
-47
-50
-51
-51
-52
-53
-53
-54
-55
-56
-57
-57
-58
-58
-58
-59
-60
-65
-63
-47
-33
-20
-9
8
29
53
77
94
101
89
82
78
74
72
70
68
66
64
63
62
60
58
56
54
47
47
54
61
69
78
90
103
116
125
130
134
125
114
106
101
97
84
64
38
12
-12
-28
-39
-45
-49
-49
-45
-39
-28
-11
2
10
11
13
6
-9
-17
-25
-33
-46
-58
-61
-63
-64
-65
-66
-65
-61
-56
-51
-42
-29
-22
-14
0
17
36
49
58
62
63
60
55
41
13
-16
-46
-72
-86
-99
-107
-110
-112
-114
-105
-90
-78
-62
-32
17
89
172
252
322
363
365
333
227
59
-121
-270
-329
-332
-290
-221
-166
-139
-126
-113
-96
-82
-76
-71
-65
-61
-58
-54
-45
-30
-21
-15
-12
-12
-17
-23
-30
-39
-39
-32
-23
-9
-2
0
2
4
5
6
8
10
11
13
16
22
34
42
48
48
41
32
21
14
10
7
4
0
-6
-12
-6
0
2
5
8
11
15
30
55
66
71
75
77
75
70
63
54
43
31
18
0
-15
-25
-32
-35
-45
-74
-105
-118
-127
-123
-101
-85
-75
-66
-58
-38
-22
-17
-25
-50
-73
-80
-83
-81
-77
-71
-65
-56
-45
-28
-15
-8
-3
0
2
4
5
6
7
8
9
10
10
11
10
10
10
9
7
4
1
-2
-7
-18
-36
-47
-55
-61
-66
-71
-70
-61
-37
-10
3
12
17
23
30
35
39
43
46
48
49
50
54
50
31
17
5
5
28
77
129
176
225
273
305
308
287
220
117
-1
-113
-204
-280
-341
-360
-357
-320
-268
-188
-94
-20
2
0
-22
-37
-48
-47
-24
17
50
61
56
41
19
11
8
10
14
18
22
22
12
0
-17
-43
-63
-69
-63
-46
-18
-3
7
16
24
29
32
35
38
42
45
50
60
78
88
92
95
97
98
98
97
97
95
93
90
84
71
65
61
58
56
55
55
56
58
61
64
68
68
58
44
30
25
21
18
17
17
19
22
26
30
35
38
36
33
29
25
31
38
42
41
32
25
20
16
9
2
-8
-29
-48
-55
-60
-60
-55
-50
-47
-44
-40
-35
-29
-22
-12
-10
-12
-15
-18
-12
-4
1
1
-4
-9
-13
-17
-22
-27
-33
-40
-49
-54
-50
-39
-22
2
42
87
122
123
101
35
-56
-158
-249
-322
-354
-365
-349
-300
-231
-164
-94
-22
17
32
37
34
28
9
-27
-71
-97
-97
-72
-36
-24
-29
-44
-78
-107
-117
-122
-118
-108
-94
-70
-41
-18
-8
-2
2
6
10
13
17
23
26
22
13
5
-4
-12
-18
-24
-31
-30
-21
-11
0
17
35
52
60
66
71
74
75
71
64
56
45
36
26
16
2
-10
-21
-31
-40
-46
-50
-54
-57
-58
-59
-60
-60
-61
-62
-64
-56
-45
-37
-50
-62
-69
-76
-83
-90
-117
-158
-188
-198
-182
-164
-150
-142
-137
-129
-114
-102
-96
-92
-89
-85
-83
-82
-80
-78
-77
-75
-74
-72
-71
-69
-67
-65
-61
-56
-38
-4
38
87
143
194
217
211
162
62
-59
-179
-273
-315
-318
-291
-228
-150
-80
-36
-22
-32
-50
-70
-87
-98
-88
-57
-28
-17
-17
-26
-50
-80
-90
-93
-89
-80
-71
-62
-52
-43
-34
-25
-16
-7
6
29
52
67
70
72
73
74
74
70
64
56
50
44
39
35
33
32
32
31
31
29
44
69
93
104
110
114
118
119
118
114
108
101
95
90
85
79
73
67
61
56
49
42
31
22
14
8
1
-7
-11
-8
-2
0
2
5
7
9
9
9
8
6
4
1
-2
-8
-18
-23
-20
-12
0
15
21
25
27
28
29
30
28
25
21
5
-26
-39
-50
-46
-29
-21
-15
-11
-8
2
32
71
84
89
92
95
97
99
102
107
94
81
71
63
56
50
43
40
44
52
76
118
162
210
262
298
310
291
233
124
-4
-133
-231
-281
-298
-291
-271
-229
-173
-106
-41
-6
3
10
14
16
16
15
13
9
5
0
-11
-36
-49
-55
-59
-62
-66
-69
-72
-74
-77
-79
-82
-88
-98
-108
-116
-124
-123
-112
-96
-78
-53
-22
-3
18
35
44
49
53
55
53
49
42
34
23
22
21
19
18
23
33
40
45
50
54
57
58
57
56
54
52
49
46
41
35
26
15
3
-10
-20
-27
-39
-58
-82
-97
-102
-105
-108
-110
-110
-109
-105
-101
-96
-92
-87
-80
-77
-78
-83
-88
-92
-97
-101
-102
-101
-98
-94
-92
-89
-86
-83
-82
-80
-79
-79
-79
-79
-80
-83
-85
-88
-92
-95
-100
-111
-119
-124
-129
-135
-137
-133
-124
-113
-100
-87
-78
-71
-65
-61
-58
-55
-53
-53
-52
-51
-49
-48
-47
-45
-44
-43
-43
-42
-42
-42
-42
-41
-40
-38
-37
-35
-35
-35
-36
-37
-39
-43
-34
-7
34
93
161
228
275
291
269
203
75
-67
-195
-265
-287
-278
-254
-212
-193
-181
-171
-160
-129
-79
-27
-6
0
2
4
7
10
14
18
23
28
34
41
48
53
58
61
64
68
72
76
79
80
79
77
75
73
72
70
68
67
65
65
65
67
69
72
75
79
84
93
101
106
109
112
115
117
118
119
120
119
118
117
117
117
117
116
115
113
113
113
115
117
118
120
122
124
126
128
129
128
125
122
113
81
41
7
-3
-10
-16
-21
-25
-32
-40
-29
-18
-10
-6
-7
-9
-11
-12
-15
-17
-19
-22
-24
-26
-28
-31
-33
-33
-32
-29
-26
-21
-16
-10
-1
5
7
8
10
13
5
-10
-26
-37
-44
-47
-43
-34
-23
-12
-11
-10
-9
-8
-8
-10
-13
-15
-18
-20
-20
-19
-18
-18
-17
-16
-15
-15
-14
-12
-10
-9
-6
-3
0
18
58
123
220
331
426
453
389
243
50
-132
-258
-282
-274
-211
-137
-81
-46
-34
-25
-17
-3
8
13
17
2
-10
-21
-27
-28
-26
-23
-22
-21
-21
-20
-18
-17
-16
-14
-13
-11
-8
-6
-3
0
4
7
5
2
-2
3
18
27
32
33
33
32
31
30
31
35
39
43
38
31
25
36
56
67
72
74
66
55
46
52
61
67
52
38
30
23
17
13
9
1
-7
-9
-11
-12
-12
-9
-3
0
3
5
7
9
9
9
8
7
6
3
0
0
5
10
15
18
19
17
12
7
-2
-18
-27
-32
-37
-39
-39
-38
-35
-32
-20
0
6
10
12
12
12
9
6
-1
-22
-45
-53
-47
-41
-37
-37
-41
-46
-50
-50
-42
-37
-34
-30
-25
-19
-14
-8
0
4
2
-3
-9
-15
-10
-3
2
1
-6
-15
-24
-25
-22
-18
-15
-15
-22
-26
-29
-31
-33
-34
-34
-34
-33
-32
-30
-27
-15
7
42
84
129
175
222
255
258
240
185
103
6
-90
-162
-197
-200
-180
-132
-83
-55
-31
5
47
78
88
80
56
-2
-65
-117
-140
-141
-123
-94
-59
-27
0
22
35
57
83
91
94
90
75
65
59
51
39
28
21
20
24
29
33
28
20
14
23
38
54
70
84
93
99
102
99
90
66
36
27
24
22
20
20
23
26
28
29
30
32
33
36
38
42
46
56
66
68
70
70
67
61
53
41
19
-11
-45
-68
-76
-80
-81
-80
-75
-69
-58
-38
-20
-8
-2
0
2
3
5
7
8
8
7
3
-3
-12
-43
-59
-65
-65
-61
-58
-56
-54
-52
-50
-48
-44
-35
-38
-55
-66
-66
-59
-47
-33
-21
-13
-21
-28
-32
-36
-38
-39
-37
-34
-31
-27
-23
-16
-12
-15
-22
-28
-34
-39
-41
-39
-35
-31
-30
-28
-27
-25
-23
-21
-20
-18
-16
-13
-7
10
37
72
111
153
200
241
246
230
144
7
-146
-276
-353
-365
-351
-299
-248
-217
-187
-148
-106
-64
-44
-32
-24
-18
-15
-13
-11
-9
-8
-8
-7
-6
-5
-4
-3
-2
-1
0
3
5
2
-4
-8
-13
-16
-18
-18
-16
-12
-7
1
17
27
31
35
38
40
43
46
49
53
59
68
80
89
95
101
103
101
96
88
63
34
21
16
13
10
9
12
18
25
31
37
43
47
48
47
44
41
37
29
13
2
-3
-13
-27
-35
-42
-48
-53
-55
-53
-50
-44
-38
-24
-6
1
7
12
14
11
2
-6
-13
-22
-29
-35
-39
-44
-51
-60
-63
-68
-62
-44
-36
-28
-22
-16
-6
11
26
38
51
82
140
222
307
361
363
323
203
31
-164
-342
-449
-466
-441
-363
-288
-228
-165
-105
-61
-46
-37
-31
-22
-10
-5
-2
0
2
2
0
-3
-6
-10
-11
-7
0
2
3
5
6
8
9
9
8
6
4
2
0
-3
-8
-12
-14
-14
-9
-1
6
13
20
28
34
40
44
47
51
58
70
81
91
99
102
98
91
86
83
81
79
76
73
70
66
62
57
47
27
11
-1
-17
-30
-40
-46
-47
-44
-41
-39
-36
-34
-32
-30
-29
-28
-27
-26
-23
-21
-19
-21
-26
-32
-36
-40
-44
-47
-47
-44
-38
-30
-16
-3
2
-2
-25
-37
-41
-44
-49
-59
-75
-84
-87
-81
-42
-29
-25
-21
-16
-11
8
24
29
18
-1
-14
-18
-22
-26
-30
-44
-68
-76
-81
-82
-81
-77
-71
-60
-44
-28
-12
17
45
75
111
147
168
175
164
129
58
-34
-132
-215
-255
-256
-225
-168
-108
-75
-63
-64
-75
-87
-98
-98
-84
-48
-3
18
25
15
-1
-16
-24
-29
-35
-43
-49
-53
-57
-61
-63
-62
-61
-57
-53
-38
-13
-6
-2
1
6
10
15
22
30
22
11
3
3
11
16
20
24
27
27
26
23
19
11
-1
-13
-21
-16
-1
22
49
59
63
66
67
66
60
51
43
36
29
24
20
16
-2
-28
-42
-51
-57
-60
-60
-57
-51
-33
-11
-6
-2
0
1
3
5
6
7
8
9
10
12
15
21
11
-17
-38
-45
-49
-51
-51
-47
-42
-36
-31
-26
-20
-17
-17
-20
-24
-29
-33
-37
-41
-44
-46
-48
-49
-50
-51
-53
-55
-55
-52
-46
-38
-27
-14
-12
-10
-7
-13
-20
-24
-29
-39
-51
-62
-76
-83
-80
-71
-63
-53
-44
-36
-26
-15
-10
-5
-1
3
10
31
64
106
155
215
274
300
292
222
76
-99
-265
-380
-418
-389
-326
-240
-159
-99
-62
-40
-31
-27
-24
-22
-20
-19
-17
-15
-13
-11
-9
-7
-5
-4
-2
0
4
9
12
13
14
16
19
21
20
17
14
10
12
25
33
39
43
46
49
52
55
57
59
61
62
64
67
71
73
73
71
69
65
62
56
54
58
65
71
77
80
75
64
54
44
37
33
26
20
17
14
11
10
12
14
15
17
18
19
18
17
16
16
14
11
11
16
22
28
14
-2
-17
-29
-40
-49
-52
-52
-54
-56
-40
-13
6
13
17
19
19
13
6
0
-4
-11
-17
-22
-27
-31
-36
-41
-45
-48
-51
-54
-56
-59
-62
-64
-65
-65
-64
-62
-60
-59
-55
-48
-60
-70
-77
-83
-88
-91
-95
-98
-101
-105
-107
-107
-103
-96
-89
-81
-72
-63
-56
-49
-42
-36
-30
-25
-21
-15
-4
14
50
101
173
254
297
293
230
97
-62
-212
-319
-340
-346
-332
-308
-284
-264
-247
-222
-192
-153
-115
-79
-60
-48
-40
-41
-54
-64
-72
-79
-81
-78
-71
-62
-47
-26
-17
-11
-6
-4
-4
-7
-12
-16
-20
-23
-27
-32
-38
-44
-52
-62
-76
-76
-64
-45
-25
-8
9
26
43
58
69
79
84
88
91
93
94
93
89
85
80
76
71
66
62
60
60
61
62
64
67
71
61
45
25
15
12
9
6
3
1
0
-1
-2
-3
-4
-6
-7
-8
-9
-11
-14
-16
-19
-21
-22
-24
-28
-34
-34
-24
-14
-2
10
18
25
29
28
23
16
10
5
0
-4
-7
-9
-11
-15
-19
-23
-28
-31
-37
-44
-33
-22
-15
-7
0
7
22
43
54
61
67
69
68
64
58
49
32
17
8
8
18
24
29
34
38
40
42
44
47
53
52
40
23
1
-9
-15
-20
-22
-22
-21
-18
-13
-4
8
13
16
18
19
21
22
23
23
22
21
19
16
14
12
9
7
3
0
-4
-10
-18
-32
-33
-23
3
48
109
185
268
327
346
324
259
144
10
-109
-195
-227
-238
-229
-218
-208
-195
-163
-117
-74
-54
-45
-40
-35
-31
-26
-22
-20
-19
-17
-16
-14
-13
-12
-10
-9
-8
-7
-8
-9
-10
-12
-14
-15
-17
-18
-20
-22
-24
-27
-33
-37
-32
-23
-12
1
11
24
44
59
66
71
76
81
85
89
93
98
102
105
103
99
92
81
63
50
42
43
53
61
67
72
75
78
80
84
88
86
73
60
48
37
28
18
5
-9
-22
-35
-38
-39
-39
-39
-39
-38
-32
-24
-14
-1
9
15
20
24
27
30
30
29
28
26
24
22
20
17
15
12
9
6
1
-4
-9
-13
-15
-18
-22
-26
-29
-32
-34
-35
-35
-35
-33
-31
-28
-24
-18
-12
3
27
37
44
47
37
22
17
14
11
8
6
3
0
-2
-4
-6
-8
-9
-9
-9
-9
-9
-9
-8
-7
-6
-5
-6
-7
-8
-7
-5
-4
-3
-2
-2
-1
0
1
1
2
1
1
1
2
4
5
5
6
7
9
11
12
13
13
13
14
16
19
21
24
27
36
61
92
124
159
188
209
222
214
190
124
34
-64
-158
-228
-250
-258
-242
-195
-135
-79
-30
14
46
57
63
65
65
62
56
45
12
-21
-31
-37
-41
-43
-45
-44
-42
-37
-31
-23
-8
22
48
66
66
52
42
35
28
22
17
14
12
9
6
3
2
2
6
12
19
24
27
30
33
37
40
42
44
46
48
50
53
55
56
56
56
56
56
57
57
57
57
58
59
59
60
61
61
62
63
64
58
47
36
25
17
11
0
-18
-26
-30
-32
-33
-34
-35
-37
-39
-41
-42
-42
-43
-44
-45
-47
-50
-54
-63
-62
-46
-32
-19
-12
-12
-14
-16
-20
-19
-8
0
7
13
17
22
28
37
38
24
8
-8
-19
-24
-28
-31
-34
-35
-37
-39
-40
-41
-42
-42
-42
-42
-43
-44
-45
-41
-32
-23
-17
-10
-5
0
3
6
9
12
16
22
26
21
10
1
-6
-14
-18
-19
-18
-16
-14
-13
-11
-8
-6
-5
-8
-14
-21
-25
-30
-35
-39
-44
-48
-51
-54
-56
-60
-66
-69
-65
-51
-15
49
144
254
351
382
371
277
133
-24
-162
-241
-267
-255
-218
-154
-92
-69
-60
-53
-50
-58
-73
-82
-90
-97
-102
-102
-97
-89
-78
-58
-21
2
18
27
28
22
13
5
-3
-10
-15
-18
-21
-24
-27
-30
-31
-31
-29
-24
-18
-10
0
17
35
44
50
55
58
61
63
64
65
65
64
63
60
57
53
48
38
41
60
68
74
79
84
88
92
94
96
97
97
97
97
95
91
87
82
77
72
62
43
28
13
-1
-17
-27
-34
-41
-45
-46
-42
-36
-29
-20
-8
-1
1
4
7
10
11
7
0
-7
-16
-26
-36
-44
-52
-61
-73
-72
-58
-48
-40
-33
-28
-23
-19
-13
-6
-8
-24
-30
-33
-36
-40
-43
-45
-47
-48
-50
-52
-54
-56
-57
-56
-55
-54
-54
-54
-55
-55
-55
-55
-56
-58
-60
-62
-63
-62
-59
-55
-52
-49
-46
-42
-38
-33
-30
-28
-26
-25
-22
-19
-18
-18
-20
-25
-31
-36
-40
-46
-53
-59
-61
-59
-54
-48
-43
-39
-35
-30
-25
-21
-19
-19
-20
-21
-21
-21
-22
-24
-26
-30
-37
-45
-52
-62
-71
-76
-79
-82
-86
-91
-91
-79
-46
-7
30
75
133
198
259
290
301
274
193
67
-61
-163
-224
-244
-236
-213
-174
-155
-138
-119
-79
-37
-21
-8
1
11
17
11
-3
-28
-55
-66
-73
-78
-80
-79
-74
-70
-66
-63
-61
-57
-53
-49
-43
-36
-27
-8
19
30
38
43
45
45
42
36
30
23
11
12
26
33
38
42
46
49
51
52
53
54
55
56
56
56
56
57
59
58
51
40
31
22
15
11
8
6
1
-3
-3
8
25
40
45
49
52
51
45
34
19
-10
-39
-58
-64
-68
-72
-76
-77
-74
-68
-62
-58
-55
-52
-49
-47
-44
-42
-40
-39
-39
-40
-41
-43
-45
-46
-47
-48
-48
-49
-50
-51
-53
-55
-57
-59
-60
-58
-54
-50
-44
-39
-29
-22
-21
-27
-38
-58
-81
-88
-92
-95
-97
-99
-100
-99
-98
-97
-94
-88
-81
-53
-4
66
146
215
239
222
170
41
-110
-243
-319
-347
-348
-335
-316
-289
-260
-233
-187
-141
-90
-63
-45
-31
-31
-47
-56
-63
-69
-73
-77
-81
-84
-86
-90
-92
-94
-97
-100
-105
-108
-106
-95
-77
-50
-10
9
20
29
35
38
36
30
23
17
12
7
3
0
-3
-4
-3
-1
2
8
16
32
67
88
100
108
113
113
109
104
97
87
71
56
47
40
34
29
25
20
17
14
11
8
6
4
3
2
0
-1
-4
-6
-7
-9
-10
-12
-15
-19
-24
-30
-36
-41
-46
-51
-53
-53
-49
-43
-36
-24
1
22
36
45
51
56
60
63
64
60
52
42
32
19
6
-5
-15
-24
-31
-31
-24
-12
1
20
33
44
54
59
63
69
76
68
58
50
50
62
79
100
135
173
215
228
211
161
43
-96
-224
-295
-304
-275
-208
-135
-72
-39
-9
14
31
42
28
13
0
0
13
19
22
25
28
30
31
32
34
36
38
40
41
40
39
39
39
40
41
42
46
52
40
27
17
13
19
32
44
56
66
72
77
81
86
90
95
102
110
118
126
133
135
132
124
116
110
104
99
94
88
83
78
74
69
64
58
54
52
52
54
57
60
64
68
76
81
74
58
43
27
14
5
-2
-10
-17
-25
-32
-37
-41
-45
-48
-51
-53
-56
-58
-60
-62
-65
-68
-70
-70
-69
-66
-63
-59
-55
-50
-44
-39
-35
-28
-22
-36
-50
-60
-64
-59
-51
-44
-39
-34
-29
-25
-22
-19
-18
-15
-13
-10
-9
-8
-8
-8
-7
-8
-9
-11
-14
-18
-21
-24
-28
-37
-42
-40
-33
-11
27
83
150
215
250
249
208
111
-14
-144
-246
-277
-287
-272
-255
-243
-230
-215
-190
-159
-139
-127
-117
-109
-82
-44
-17
-6
-7
-23
-34
-44
-52
-57
-57
-51
-44
-36
-31
-25
-19
-14
-12
-10
-9
-8
-7
-5
-3
-1
-1
-2
-5
-8
-11
-15
-23
-24
-15
-10
-7
-4
-1
1
3
6
9
12
16
20
25
38
59
69
76
78
75
68
58
39
24
15
7
1
-2
-5
-8
-11
-14
-17
-20
-24
-28
-32
-36
-40
-44
-47
-50
-55
-63
-71
-80
-91
-104
-113
-118
-123
-126
-129
-130
-129
-127
-125
-122
-118
-115
-110
-104
-97
-90
-85
-81
-77
-75
-72
-69
-67
-64
-62
-58
-52
-48
-48
-53
-59
-65
-73
-77
-73
-63
-37
20
92
165
231
270
273
248
167
35
-129
-275
-368
-385
-381
-346
-304
-271
-249
-236
-216
-173
-118
-72
-53
-46
-43
-41
-39
-37
-35
-33
-30
-28
-27
-30
-37
-43
-47
-51
-55
-58
-61
-62
-62
-61
-58
-56
-53
-51
-47
-41
-36
-29
-21
-11
-5
-1
1
4
9
15
22
30
38
46
54
61
66
71
76
80
83
85
86
88
92
93
90
81
67
52
33
8
-19
-28
-32
-34
-33
-26
-19
-12
-6
-1
4
11
11
4
-2
-9
-13
-15
-17
-19
-20
-20
-19
-17
-14
-10
-4
-5
-16
-21
-26
-30
-34
-35
-35
-33
-30
-26
-18
-9
-7
-5
-4
-2
-1
0
2
6
9
13
20
24
20
12
2
-13
-28
-41
-53
-62
-66
-69
-62
-48
-33
-17
-2
6
12
16
16
13
9
6
4
2
0
-2
-4
-7
-10
-12
-15
-19
-22
-24
-24
-21
-18
-12
6
35
67
104
142
178
208
227
226
206
146
59
-39
-133
-213
-273
-319
-344
-352
-336
-289
-205
-105
-5
49
53
22
-11
-22
-14
-6
0
3
0
-10
-37
-73
-94
-101
-93
-83
-74
-66
-57
-44
-19
0
7
11
14
16
18
22
26
17
1
-8
-13
-8
4
11
16
19
21
23
25
27
29
32
37
43
55
65
68
70
72
72
70
66
61
50
39
34
39
51
55
58
61
62
63
62
61
59
57
53
46
33
20
7
-2
-8
-14
-21
-32
-43
-48
-51
-53
-54
-54
-54
-53
-52
-49
-45
-33
-6
7
21
33
38
42
44
45
44
40
34
24
10
-1
-18
-31
-38
-43
-46
-46
-44
-39
-33
-20
-4
6
13
7
-10
-36
-45
-49
-50
-50
-50
-51
-51
-48
-43
-37
-33
-28
-23
-16
6
50
110
178
246
295
298
263
145
-14
-172
-283
-329
-334
-315
-276
-235
-201
-163
-103
-35
8
22
13
-1
-11
-16
-19
-10
-3
0
4
7
11
15
18
21
25
29
33
36
38
41
44
48
48
42
36
30
41
71
87
92
95
100
105
111
116
120
124
128
130
133
136
138
141
144
148
152
157
161
164
166
168
171
175
174
165
138
118
112
108
105
104
105
106
108
110
111
113
114
116
118
119
119
119
117
115
111
108
105
101
99
96
94
92
90
88
85
82
79
77
76
75
74
73
71
68
61
53
51
49
47
47
51
57
66
76
82
86
89
93
97
103
108
112
115
119
122
124
124
121
117
113
109
107
104
101
97
93
90
88
86
84
81
76
69
70
81
93
106
118
132
149
176
211
257
302
329
340
339
322
277
190
80
-36
-140
-215
-243
-241
-204
-140
-61
30
99
125
124
92
55
43
36
32
16
-27
-75
-117
-134
-141
-145
-148
-152
-155
-162
-186
-217
-249
-272
-287
-293
-298
-302
-305
-308
-311
-313
-315
-318
-322
-327
-331
-333
-332
-331
-329
-326
-323
-324
-333
-341
-349
-356
-362
-368
-376
-375
-365
-337
-298
-264
-253
-244
-237
-233
-230
-227
-224
-222
-220
-218
-215
-213
-211
-209
-207
-205
-203
-201
-198
-196
-192
-186
-174
-153
-137
-126
-116
-108
-101
-94
-87
-81
-74
-71
-72
-74
-77
-72
-51
-35
-22
-13
-3
9
29
47
59
65
69
74
79
78
71
59
42
28
18
18
25
36
51
77
102
110
98
61
1
-56
-110
-170
-231
-281
-305
-313
-300
-260
-205
-162
-139
-125
-109
-101
-98
-96
-104
-128
-154
-181
-205
-215
-220
-223
-223
-216
-200
-179
-150
-121
-97
-80
-68
-60
-55
-54
-58
-63
-80
-106
-131
-155
-168
-189
-211
-239
-246
-248
-242
-206
-164
-123
-84
-47
-11
26
70
106
122
130
135
138
140
141
143
145
134
121
111
111
117
124
132
142
154
169
182
190
192
194
195
186
174
164
156
148
140
132
123
111
102
95
95
104
111
117
123
128
134
143
156
164
168
173
178
184
196
208
214
218
217
207
192
175
160
147
140
136
133
132
135
138
142
147
149
146
140
133
126
121
116
112
118
136
178
241
318
404
468
472
429
294
119
-50
-177
-226
-228
-187
-128
-70
-5
67
127
142
146
137
128
123
118
111
103
98
94
90
87
83
80
78
76
75
73
70
67
62
56
53
56
60
64
68
70
69
66
64
62
63
69
75
80
87
95
101
106
111
113
112
109
106
104
102
100
98
96
93
89
84
78
78
87
95
103
106
102
95
88
81
74
70
65
48
27
20
16
13
11
12
14
17
21
26
33
45
54
63
73
86
98
109
111
106
101
96
96
100
105
110
99
86
75
73
76
80
84
73
67
64
62
61
60
59
58
55
52
50
48
45
43
41
38
35
29
14
13
26
46
67
76
82
85
84
81
76
62
28
16
12
10
8
7
7
6
7
7
8
12
16
23
49
101
166
230
266
265
223
115
-24
-159
-264
-311
-327
-333
-329
-318
-285
-206
-117
-39
-5
5
-4
-18
-35
-47
-56
-56
-50
-46
-42
-38
-37
-40
-45
-51
-53
-55
-57
-59
-62
-64
-66
-67
-67
-67
-67
-66
-64
-61
-58
-55
-52
-50
-48
-44
-39
-35
-33
-34
-37
-41
-46
-56
-72
-81
-89
-90
-83
-75
-66
-54
-39
-28
-26
-24
-23
-21
-18
-15
-13
-10
-6
-2
-2
-5
-11
-20
-36
-56
-73
-85
-94
-95
-89
-85
-82
-79
-77
-76
-76
-77
-77
-77
-77
-78
-79
-81
-82
-83
-82
-78
-72
-66
-62
-58
-53
-49
-46
-44
-42
-41
-39
-36
-33
-30
-32
-39
-48
-55
-63
-72
-78
-84
-91
-100
-100
-92
-81
-72
-69
-67
-64
-58
-48
-30
-15
-9
-4
-9
-19
-18
-7
0
0
-7
-14
-21
-22
-18
-14
-9
-15
-24
-31
-22
-11
-2
2
6
10
11
9
4
-9
-36
-48
-55
-59
-61
-57
-47
-17
27
88
165
248
326
386
392
365
237
50
-149
-304
-354
-354
-308
-264
-232
-191
-148
-105
-66
-28
-4
1
5
8
11
14
17
21
26
33
37
34
26
11
-1
-5
-7
-9
-9
-8
-6
-5
-4
-2
-1
-1
-3
-6
-12
-7
7
15
20
25
28
33
39
44
48
52
54
56
57
59
60
63
66
70
79
91
97
101
101
92
85
78
73
69
66
63
62
62
64
67
70
74
64
57
53
51
48
45
41
37
32
27
21
15
9
3
0
-4
-7
-10
-13
-17
-20
-22
-22
-22
-20
-19
-17
-15
-12
-8
-3
-1
-3
-10
-17
-23
-31
-36
-36
-33
-29
-26
-23
-19
-14
-8
-3
1
6
11
16
19
21
22
25
30
28
14
4
-3
-11
-18
-23
-29
-43
-63
-73
-79
-84
-85
-84
-79
-73
-63
-45
-11
19
30
36
40
42
42
42
43
45
42
39
37
36
34
31
26
21
16
10
4
4
8
15
35
81
135
191
247
288
289
256
153
6
-151
-274
-324
-341
-329
-296
-253
-208
-167
-130
-87
-42
-6
8
16
22
21
9
0
-11
-17
-21
-23
-25
-26
-28
-29
-30
-30
-30
-28
-26
-24
-22
-20
-18
-16
-14
-10
-6
-3
0
3
8
12
15
17
18
19
22
26
27
24
20
15
29
42
51
58
62
65
67
71
75
78
75
69
63
57
53
54
57
60
63
64
57
45
33
20
11
3
-10
-23
-28
-32
-34
-33
-31
-30
-29
-28
-27
-26
-26
-27
-29
-32
-35
-38
-41
-43
-46
-49
-51
-52
-53
-53
-54
-54
-53
-51
-48
-44
-41
-37
-27
-5
32
87
159
236
291
309
282
201
46
-130
-286
-378
-391
-365
-284
-199
-136
-89
-70
-62
-56
-53
-53
-55
-58
-65
-61
-36
-16
-6
0
2
3
-1
-11
-20
-26
-31
-36
-41
-45
-48
-50
-50
-49
-47
-45
-41
-37
-30
-17
-3
7
13
19
25
32
38
42
45
48
50
53
56
58
60
62
63
64
65
66
67
68
70
74
78
79
77
72
65
55
42
31
20
10
-3
-12
-18
-24
-27
-29
-29
-28
-25
-21
-17
-10
-1
-8
-31
-61
-71
-60
-48
-37
-36
-39
-46
-45
-23
-3
4
4
-1
-9
-15
-1
13
24
34
42
67
112
164
213
254
278
286
274
238
140
0
-156
-295
-391
-425
-396
-320
-227
-149
-105
-89
-73
-45
-14
0
12
19
11
-16
-48
-59
-64
-67
-68
-63
-53
-38
-21
-13
-9
-5
0
5
13
25
39
30
16
0
-10
-16
-20
-22
-22
-20
-16
-10
0
14
22
25
28
31
34
38
44
58
72
76
79
81
82
82
81
77
72
64
48
34
26
32
38
42
44
43
41
39
37
34
29
23
13
1
-9
-9
2
9
-1
-8
-13
-18
-22
-24
-23
-19
-14
-9
-2
7
8
4
0
-3
-3
-1
0
1
2
3
2
-1
-7
-16
-31
-45
-57
-63
-68
-68
-61
-51
-38
-29
-24
-17
-11
-5
1
5
2
-2
-11
-24
-38
-55
-75
-89
-96
-102
-101
-91
-63
-18
39
104
163
204
210
195
124
15
-104
-199
-252
-265
-270
-262
-249
-237
-223
-200
-186
-170
-154
-135
-118
-104
-94
-87
-69
-43
-34
-31
-29
-28
-31
-37
-46
-60
-72
-80
-79
-69
-61
-55
-49
-44
-39
-29
-16
-5
4
12
16
7
0
-4
-8
-10
-12
-12
-13
-13
-15
-10
0
3
6
9
12
14
19
35
64
82
88
91
91
87
82
77
72
67
62
56
50
46
41
35
31
24
13
0
-8
-13
-17
-21
-26
-35
-44
-48
-50
-51
-52
-52
-52
-51
-49
-47
-45
-42
-39
-33
-28
-25
-23
-20
-16
-17
-22
-26
-28
-30
-32
-34
-36
-39
-42
-45
-49
-54
-61
-65
-61
-53
-41
-23
9
55
125
203
266
299
301
279
213
110
-22
-170
-303
-385
-397
-379
-345
-309
-274
-239
-188
-119
-34
39
74
86
93
95
94
90
82
56
25
-9
-18
-20
-21
-22
-24
-28
-33
-38
-43
-47
-50
-49
-45
-37
-25
-8
8
16
17
19
21
27
37
43
49
55
59
60
60
58
56
53
51
48
51
62
72
79
86
91
97
117
141
149
147
134
113
91
73
53
33
14
-20
-62
-75
-77
-79
-80
-80
-76
-70
-60
-45
-21
11
44
55
61
64
55
43
31
20
4
-9
-16
-19
-21
-24
-28
-32
-36
-42
-51
-52
-46
-37
-26
-7
17
29
34
37
39
40
39
36
31
31
48
81
128
185
247
297
300
267
148
-15
-174
-291
-335
-337
-304
-256
-221
-203
-177
-138
-94
-65
-54
-54
-60
-65
-71
-75
-79
-84
-88
-79
-63
-46
-28
-10
8
25
41
53
58
62
63
60
53
42
28
18
10
1
-21
-51
-72
-80
-71
-57
-42
-26
-8
11
30
50
61
65
66
69
73
79
84
89
93
95
94
90
85
78
69
61
54
47
40
33
23
9
0
-5
-8
-11
-14
-16
-18
-21
-23
-22
-19
-15
-11
-19
-33
-46
-52
-55
-58
-61
-64
-70
-70
-54
-29
-20
-17
-15
-13
-10
-7
-2
2
-6
-17
-26
-32
-38
-48
-65
-80
-90
-90
-83
-62
-40
-31
-24
-17
-10
-1
6
12
16
16
14
10
7
2
-3
-11
-16
-20
-24
-27
-29
-31
-33
-34
-35
-37
-41
-43
-39
-30
-22
-14
-6
0
11
23
31
37
27
18
12
8
6
5
4
1
0
9
39
84
131
180
227
255
254
218
117
-27
-177
-293
-351
-360
-344
-300
-260
-227
-185
-133
-68
-10
20
30
19
-1
-13
-17
-20
-14
-3
9
22
30
35
37
29
4
-18
-25
-29
-32
-32
-30
-27
-22
-15
0
12
21
21
17
12
7
12
17
22
22
14
3
-5
-1
3
7
0
-11
-19
-12
0
14
29
41
50
57
66
73
79
87
96
107
117
109
102
97
92
88
84
68
37
-7
-36
-45
-41
-36
-33
-29
-26
-22
-8
23
29
29
30
30
30
26
20
12
-4
-25
-39
-46
-51
-44
-31
-16
-1
11
19
24
27
28
27
22
15
4
-14
-26
-35
-39
-35
-27
-21
-14
-9
-7
-4
-1
2
3
0
-3
-6
-8
-2
7
16
25
31
30
23
13
4
-5
-15
-23
-30
-38
-44
-46
-47
-49
-52
-53
-48
-39
-30
-21
-13
-6
-1
1
5
8
12
16
19
24
34
49
71
102
145
193
232
245
224
163
22
-154
-307
-384
-395
-370
-306
-229
-147
-81
-52
-42
-42
-51
-62
-70
-57
-35
-19
-14
-12
-11
-10
-9
-7
-4
-1
2
6
13
18
18
13
4
-8
-22
-26
-28
-29
-31
-32
-33
-32
-29
-25
-20
-15
-8
2
11
18
28
46
58
64
68
72
75
77
78
79
81
84
83
73
57
40
26
11
-12
-36
-45
-45
-36
-26
-15
-6
0
5
8
7
1
-9
-26
-54
-69
-75
-80
-84
-87
-88
-88
-86
-83
-78
-74
-70
-66
-60
-53
-47
-43
-43
-43
-45
-47
-50
-51
-54
-57
-62
-68
-75
-90
-103
-107
-110
-112
-112
-109
-103
-93
-78
-57
-49
-44
-41
-38
-37
-37
-40
-44
-49
-56
-68
-74
-79
-83
-86
-87
-85
-78
-69
-60
-48
-40
-34
-30
-27
-24
-21
-20
-20
-23
-29
-34
-39
-44
-50
-57
-63
-66
-64
-59
-53
-49
-46
-43
-40
-37
-34
-31
-28
-26
-25
-23
-21
-19
-19
-18
-16
-3
29
91
170
253
316
336
309
232
93
-55
-161
-188
-183
-152
-133
-124
-119
-112
-101
-82
-51
-26
-10
-2
-3
-6
-10
-15
-14
-3
7
20
35
44
51
56
59
58
57
56
55
53
51
51
50
49
48
48
48
51
54
58
63
67
71
77
83
89
91
92
94
96
101
99
82
72
63
56
52
50
52
55
59
64
75
97
114
126
130
131
132
133
135
136
137
136
132
126
117
102
76
59
47
37
27
12
-11
-29
-40
-47
-50
-52
-55
-58
-60
-54
-40
-24
-5
5
11
15
19
21
23
23
22
19
15
9
3
-4
-17
-24
-28
-30
-32
-33
-34
-35
-36
-37
-37
-36
-35
-35
-34
-34
-32
-31
-30
-29
-28
-27
-26
-24
-23
-22
-21
-20
-18
-15
-12
-9
-5
0
4
12
20
26
33
58
93
141
198
255
274
262
228
120
-15
-139
-226
-253
-262
-252
-223
-180
-125
-81
-68
-60
-55
-51
-46
-35
-14
3
15
14
0
-21
-39
-46
-50
-53
-54
-54
-51
-46
-40
-34
-28
-21
-12
-1
8
18
26
35
43
49
55
60
63
66
69
73
77
79
79
77
74
71
68
65
64
62
60
57
55
54
54
55
55
55
54
53
52
50
49
48
46
44
41
39
36
32
29
22
7
-4
-13
-18
-23
-27
-31
-33
-35
-36
-36
-34
-32
-30
-28
-26
-23
-19
-15
-11
-9
-10
-11
-13
-14
-15
-16
-18
-20
-20
-17
-11
-4
1
9
16
19
17
11
3
-4
-15
-24
-32
-38
-42
-46
-50
-53
-55
-56
-53
-48
-41
-34
-27
-18
-10
-5
-1
2
6
9
8
0
-7
-12
-15
-19
-24
-27
-30
-32
-34
-35
-36
-37
-38
-39
-39
-41
-46
-50
-46
-39
-35
-32
-29
-26
-23
-20
-17
-13
-7
1
35
83
137
204
273
321
323
280
164
10
-141
-264
-319
-337
-321
-275
-209
-145
-107
-89
-78
-69
-58
-43
-21
-9
-4
0
2
3
4
2
-1
-5
-10
-15
-20
-27
-33
-38
-38
-35
-31
-25
-18
-6
6
12
14
16
18
20
22
25
29
32
34
36
38
41
45
49
62
82
89
92
95
97
99
99
99
97
95
91
85
76
62
54
50
47
44
42
41
41
44
48
52
58
67
56
46
38
34
35
37
41
45
40
35
32
28
26
24
16
-4
-10
-14
-18
-19
-19
-18
-15
-12
-10
-7
-2
0
-1
-7
-13
-20
-21
-13
7
33
69
117
174
230
255
230
146
12
-136
-264
-339
-351
-337
-270
-193
-132
-108
-101
-97
-93
-90
-86
-83
-80
-76
-69
-59
-42
-34
-29
-24
-21
-17
-15
-13
-11
-10
-9
-9
-8
-8
-8
-7
-6
-5
-5
-6
-9
-12
-16
-18
-23
-27
-28
-25
-18
-8
8
28
46
57
65
66
63
60
57
56
58
61
64
62
51
44
38
33
30
29
30
33
36
40
45
54
55
44
28
9
-3
-11
-15
-17
-21
-25
-22
-18
-15
-25
-34
-39
-43
-48
-51
-55
-59
-65
-66
-60
-55
-51
-46
-42
-37
-28
-19
-17
-15
-14
-13
-14
-16
-19
-22
-26
-26
-22
-10
15
55
115
194
276
330
329
273
132
-37
-187
-277
-305
-284
-256
-240
-211
-176
-145
-130
-108
-81
-58
-50
-49
-56
-65
-72
-75
-77
-69
-56
-41
-28
-20
-14
-9
-5
0
2
0
-7
-14
-22
-23
-17
-11
-5
-10
-19
-20
-3
9
14
16
16
13
12
10
8
8
8
10
13
16
20
25
31
38
49
58
63
67
59
53
49
45
42
42
42
44
46
48
50
54
53
48
43
39
34
29
13
-18
-52
-82
-96
-104
-109
-112
-111
-107
-99
-86
-76
-74
-72
-72
-77
-79
-81
-82
-83
-85
-86
-88
-90
-94
-98
-107
-121
-131
-137
-128
-112
-98
-82
-61
-48
-36
-29
-26
-23
-25
-48
-73
-88
-104
-112
-114
-115
-116
-116
-117
-116
-114
-111
-108
-104
-98
-89
-81
-72
-64
-59
-56
-54
-52
-51
-48
-46
-44
-42
-39
-35
-26
-11
-3
1
3
3
0
-6
-18
-28
-32
-28
1
52
119
197
272
309
305
245
111
-57
-214
-315
-344
-343
-308
-265
-227
-189
-140
-95
-52
-35
-29
-36
-47
-56
-47
-33
-17
0
15
29
37
38
39
40
40
38
37
40
43
45
46
46
45
43
39
34
25
10
-11
-39
-57
-64
-64
-54
-28
-1
9
16
24
39
60
69
70
71
71
74
80
91
101
105
109
108
98
83
66
54
46
47
56
66
76
83
92
100
105
108
99
83
65
47
31
16
6
2
0
-1
-2
-4
-5
-6
-7
-8
-8
-7
-4
0
7
21
37
52
61
67
70
71
70
66
62
58
53
47
39
31
25
18
12
8
6
5
4
4
3
2
1
1
2
6
10
15
19
