21
34
47
50
46
41
37
33
30
26
25
27
34
41
50
64
65
52
30
18
16
15
13
11
10
12
17
21
28
37
37
26
19
13
9
6
4
4
5
9
15
23
35
54
62
70
76
68
62
59
57
54
53
53
55
57
61
64
69
75
79
82
85
89
95
103
114
138
157
158
158
160
165
171
174
176
180
184
185
185
184
184
184
182
179
173
166
158
149
134
125
118
109
96
71
54
44
34
27
23
22
21
19
13
7
13
20
25
29
21
6
-7
-22
-29
-24
-13
0
20
54
112
189
297
431
556
657
735
785
803
815
807
749
660
563
470
386
309
227
150
83
16
-37
-69
-94
-111
-111
-96
-89
-85
-82
-79
-76
-73
-68
-64
-61
-58
-54
-50
-46
-39
-28
-22
-25
-31
-36
-42
-40
-29
-21
-17
-13
-10
-6
-1
4
10
15
19
21
23
26
29
33
39
47
57
32
15
5
-3
-9
-13
-13
-9
-3
3
11
24
44
48
38
28
16
16
33
45
54
61
66
71
76
82
91
109
140
172
204
229
245
258
269
276
282
287
291
296
302
308
314
323
336
342
333
313
295
276
266
261
254
244
231
219
209
210
223
238
252
229
189
161
152
146
141
134
126
117
105
104
110
118
125
103
85
74
65
59
55
52
50
47
44
42
39
36
34
31
28
25
21
17
11
3
-7
-21
-42
-63
-91
-126
-166
-200
-215
-223
-228
-232
-237
-243
-248
-252
-257
-263
-273
-289
-299
-305
-309
-311
-312
-314
-315
-316
-315
-311
-307
-303
-299
-296
-295
-294
-294
-293
-292
-290
-287
-283
-279
-276
-274
-273
-270
-266
-261
-251
-233
-221
-215
-209
-203
-198
-195
-196
-200
-204
-208
-210
-214
-219
-223
-224
-222
-218
-213
-208
-204
-199
-192
-187
-185
-188
-194
-202
-209
-217
-231
-244
-256
-271
-286
-294
-307
-302
-288
-285
-284
-281
-279
-276
-272
-268
-265
-260
-255
-247
-237
-187
-75
37
144
245
338
413
466
486
508
464
361
241
143
69
0
-75
-151
-218
-284
-350
-404
-433
-461
-485
-504
-516
-499
-473
-444
-395
-359
-346
-341
-347
-356
-362
-369
-374
-377
-374
-367
-357
-339
-310
-293
-284
-277
-270
-264
-260
-258
-254
-235
-184
-157
-146
-142
-139
-136
-133
-130
-128
-126
-125
-124
-123
-122
-120
-118
-113
-106
-106
-114
-123
-131
-129
-114
-105
-99
-95
-91
-89
-89
-89
-91
-93
-95
-97
-100
-105
-108
-109
-107
-102
-95
-85
-67
-38
-23
-15
-8
-2
3
8
15
24
33
44
59
76
89
101
111
119
126
130
134
138
145
152
156
155
152
148
143
139
133
128
128
134
144
154
168
178
184
188
193
197
201
205
213
221
228
236
243
246
242
232
222
214
206
197
192
193
199
208
225
250
269
282
268
255
244
239
246
260
271
281
290
297
303
312
323
308
282
254
235
224
211
200
189
177
171
180
197
210
225
235
238
240
242
243
245
244
237
230
222
221
229
235
241
245
246
244
240
236
233
228
225
225
232
240
248
256
266
275
283
291
297
303
307
311
314
316
316
315
313
310
306
300
294
284
273
257
237
213
195
174
139
111
96
86
79
73
68
61
51
51
63
75
88
87
67
44
19
1
-10
-20
-26
-27
-24
-17
4
53
117
192
268
353
459
579
701
809
863
865
825
730
626
531
463
415
357
268
171
78
2
-52
-101
-130
-179
-218
-232
-230
-211
-194
-180
-167
-158
-150
-141
-130
-122
-115
-111
-108
-106
-105
-104
-103
-101
-101
-102
-104
-107
-110
-113
-115
-118
-120
-122
-123
-122
-119
-114
-108
-102
-94
-81
-80
-88
-95
-99
-102
-108
-116
-127
-150
-176
-188
-194
-203
-216
-238
-256
-267
-260
-229
-196
-172
-158
-148
-145
-149
-157
-169
-192
-214
-221
-225
-229
-230
-222
-209
-187
-156
-140
-132
-124
-115
-105
-96
-86
-78
-69
-61
-54
-46
-31
-5
10
20
28
32
32
28
22
16
12
8
3
-1
-5
-8
-11
-13
-15
-17
-19
-21
-26
-33
-20
0
23
43
57
68
80
90
75
50
30
19
11
28
45
56
66
73
79
86
94
100
101
95
88
82
77
74
71
68
64
60
55
52
49
46
42
38
35
34
38
45
55
63
71
81
91
100
106
110
113
116
120
125
131
143
156
165
172
178
183
186
187
186
183
179
174
166
152
123
107
99
93
87
84
83
84
86
89
93
95
97
100
102
104
106
106
105
104
101
98
94
89
81
74
70
72
76
82
86
90
93
93
88
77
64
52
37
21
8
-3
-12
-21
-29
-36
-41
-42
-40
-37
-33
-30
-26
-20
-16
-18
-22
-28
-34
-20
23
80
158
260
384
513
645
769
867
897
892
837
740
625
506
380
285
235
209
185
155
93
39
-3
-49
-108
-168
-199
-219
-232
-237
-239
-241
-243
-246
-247
-245
-238
-227
-207
-186
-177
-169
-168
-174
-178
-181
-185
-189
-189
-185
-179
-173
-170
-167
-164
-160
-157
-155
-155
-158
-163
-169
-173
-179
-189
-198
-199
-192
-183
-175
-166
-159
-157
-160
-168
-177
-193
-223
-241
-252
-259
-263
-263
-261
-257
-253
-249
-245
-239
-232
-224
-216
-208
-200
-190
-179
-165
-152
-142
-132
-121
-112
-104
-99
-95
-90
-83
-72
-55
-28
-6
12
26
34
39
42
44
47
50
54
57
58
55
51
46
41
37
33
28
24
21
19
17
17
17
17
19
22
25
27
29
30
31
33
35
37
39
41
43
46
48
50
50
49
47
43
39
34
29
20
15
21
33
40
46
51
56
61
65
69
73
78
83
90
95
98
96
88
77
67
59
49
39
30
25
22
20
18
15
11
6
3
2
3
7
11
16
23
34
41
31
11
-1
-14
-25
-31
-31
-26
-20
-13
-2
16
39
51
59
65
70
74
79
84
90
94
99
103
109
115
120
126
131
136
140
145
150
155
158
163
171
177
177
167
152
135
110
89
76
66
58
53
52
56
63
70
74
78
81
84
85
88
91
92
91
89
85
81
76
72
66
57
49
48
55
67
100
159
224
295
382
496
634
781
915
962
957
881
774
671
587
545
511
469
380
271
166
66
-10
-54
-98
-136
-151
-158
-164
-168
-171
-173
-173
-172
-171
-168
-165
-161
-157
-152
-148
-145
-142
-141
-139
-137
-134
-132
-130
-128
-124
-121
-118
-116
-115
-114
-113
-112
-109
-106
-102
-98
-92
-82
-70
-60
-49
-38
-24
-6
-6
-27
-51
-74
-88
-97
-105
-114
-122
-129
-140
-151
-133
-114
-100
-94
-97
-104
-110
-115
-120
-125
-129
-135
-141
-150
-156
-146
-125
-107
-89
-72
-58
-45
-26
-1
18
29
35
39
42
45
47
51
56
62
68
74
80
86
92
99
106
115
124
133
139
142
142
138
132
125
119
115
111
106
99
92
87
84
84
85
87
89
92
96
102
108
111
112
114
114
113
112
112
112
113
115
118
125
122
99
91
88
84
79
74
70
67
66
64
63
63
62
62
63
64
63
63
61
59
57
54
52
50
48
47
47
46
44
41
36
24
14
14
20
27
30
31
32
34
36
38
39
39
39
41
42
43
44
44
45
46
49
52
54
55
56
57
59
63
68
74
78
83
92
104
116
127
139
149
158
170
181
186
182
169
151
129
97
63
41
23
8
0
0
3
8
12
18
23
26
25
23
19
14
4
-9
6
18
25
31
35
37
37
35
31
28
23
16
4
6
30
66
112
189
285
405
530
642
730
758
772
762
686
587
487
397
350
276
207
129
19
-94
-183
-267
-293
-305
-292
-259
-240
-229
-227
-231
-236
-242
-250
-246
-214
-194
-179
-166
-157
-154
-158
-168
-180
-192
-200
-208
-216
-225
-233
-239
-242
-239
-234
-227
-220
-213
-205
-195
-183
-170
-156
-142
-128
-115
-101
-85
-70
-57
-46
-34
-21
-6
9
23
36
48
58
67
75
83
92
101
111
121
129
139
148
156
160
159
156
151
144
135
124
107
101
100
99
99
105
137
156
171
183
192
196
196
190
181
171
163
157
152
147
143
141
139
136
130
122
113
104
95
88
81
74
66
60
54
49
45
39
33
26
19
12
7
1
-3
-7
-7
-5
-2
1
6
10
13
17
22
27
31
34
36
38
40
43
47
50
52
52
52
50
47
42
36
30
24
19
15
14
13
12
10
8
5
2
-1
-4
-8
-13
-18
-22
-24
-26
-26
-27
-27
-29
-32
-35
-39
-44
-49
-55
-62
-69
-75
-81
-86
-90
-94
-97
-100
-102
-105
-113
-123
-131
-132
-125
-112
-94
-67
-32
-30
-29
-28
-24
-20
-17
-15
-15
-16
-19
-24
-31
-41
-52
-64
-76
-85
-90
-95
-99
-104
-108
-112
-116
-120
-125
-130
-135
-139
-141
-141
-140
-140
-140
-140
-140
-139
-139
-139
-139
-140
-142
-143
-145
-150
-152
-143
-116
-43
55
171
296
424
545
596
623
643
640
601
542
465
387
329
297
271
236
140
36
-61
-164
-209
-230
-246
-253
-244
-228
-222
-217
-213
-210
-209
-210
-209
-207
-204
-202
-200
-198
-195
-193
-189
-185
-181
-177
-172
-167
-162
-157
-153
-147
-140
-133
-126
-120
-117
-117
-117
-118
-119
-120
-123
-126
-129
-134
-138
-143
-147
-152
-158
-164
-170
-174
-180
-186
-192
-199
-208
-215
-222
-227
-231
-234
-233
-229
-223
-215
-207
-199
-192
-186
-179
-171
-163
-155
-147
-140
-132
-124
-116
-108
-100
-93
-86
-76
-65
-53
-44
-36
-29
-22
-14
-4
6
18
29
38
44
49
53
57
60
62
61
59
56
53
48
43
39
35
32
29
27
25
24
22
20
19
18
19
20
22
24
25
25
24
22
20
18
14
10
5
1
-1
-3
-5
-8
-10
-13
-16
-19
-22
-26
-31
-36
-40
-43
-45
-47
-48
-49
-49
-48
-47
-45
-43
-40
-37
-34
-30
-26
-23
-19
-17
-15
-13
-12
-11
-8
-5
-2
0
2
4
8
13
20
26
30
34
37
42
47
54
61
68
78
98
120
133
141
147
154
165
171
167
155
145
133
123
123
133
145
151
154
157
161
166
172
178
180
180
178
175
172
167
162
157
151
146
142
140
137
133
129
125
122
118
115
111
107
104
104
105
108
112
115
119
124
132
140
149
170
215
287
384
509
652
790
911
957
986
982
907
794
669
563
504
448
398
323
228
124
-2
-96
-132
-145
-135
-109
-65
-22
-5
7
13
6
-6
-10
-13
-16
-19
-22
-26
-31
-35
-38
-39
-40
-39
-37
-34
-31
-28
-24
-22
-21
-22
-22
-22
-21
-19
-17
-15
-13
-11
-8
-4
0
3
4
5
4
3
2
0
-4
-10
-17
-24
-29
-33
-36
-39
-42
-45
-48
-49
-51
-53
-56
-61
-66
-70
-73
-74
-75
-76
-78
-81
-85
-89
-107
-128
-134
-140
-138
-119
-99
-76
-47
-16
10
22
27
30
32
33
32
33
34
35
36
36
35
35
35
35
36
37
37
37
36
36
36
35
36
37
39
42
48
53
51
45
41
38
36
33
32
33
35
38
42
46
54
67
67
52
42
34
27
22
21
25
31
39
48
58
73
87
94
100
108
117
96
83
78
74
70
67
63
60
56
51
46
41
37
33
29
24
14
3
-4
-10
-15
-20
-29
-35
-29
-14
-1
11
22
29
33
36
39
44
49
53
55
55
53
50
46
42
37
27
28
41
49
55
61
65
67
67
64
59
53
47
38
23
21
30
35
39
44
47
48
47
42
35
28
20
11
-3
-17
-19
-10
4
23
46
58
68
78
75
49
31
16
3
-1
1
11
28
76
159
248
340
432
520
606
691
747
767
775
768
746
683
567
448
342
250
184
127
49
-16
-58
-89
-108
-119
-124
-126
-131
-137
-121
-109
-103
-98
-95
-93
-91
-90
-88
-85
-81
-78
-76
-75
-74
-72
-69
-66
-63
-61
-59
-56
-53
-50
-47
-45
-42
-38
-34
-30
-26
-24
-24
-25
-26
-29
-33
-38
-44
-51
-67
-97
-112
-122
-130
-134
-132
-126
-121
-119
-118
-116
-115
-115
-114
-113
-112
-111
-109
-106
-103
-101
-101
-99
-96
-92
-87
-81
-73
-64
-47
-29
-10
6
13
19
25
32
38
44
49
52
55
58
60
61
59
55
51
47
44
40
36
31
26
21
18
15
9
1
-7
-12
-13
-10
-6
0
4
7
11
16
22
26
28
29
29
29
28
27
24
21
18
16
14
11
8
5
5
11
20
31
41
48
55
64
73
80
85
84
82
80
78
77
77
77
75
73
71
72
76
83
89
94
96
98
101
105
107
109
110
113
116
119
121
121
120
117
113
109
105
100
95
90
86
83
81
80
80
80
80
80
80
79
78
76
73
71
68
66
64
63
61
59
58
57
55
52
48
43
34
24
14
2
-10
-23
-35
-45
-54
-62
-69
-76
-81
-83
-82
-81
-78
-75
-72
-68
-65
-61
-57
-52
-48
-43
-37
-31
-21
-8
40
117
219
337
457
572
679
738
757
739
683
595
515
483
456
389
293
189
77
-23
-100
-171
-192
-196
-199
-201
-202
-202
-197
-189
-181
-174
-165
-156
-149
-145
-145
-146
-149
-153
-158
-165
-171
-172
-163
-151
-143
-135
-128
-122
-118
-118
-120
-124
-128
-132
-135
-139
-143
-147
-151
-155
-159
-161
-162
-161
-160
-160
-160
-162
-163
-164
-166
-168
-172
-179
-188
-198
-208
-218
-233
-245
-245
-233
-218
-204
-188
-176
-169
-163
-155
-144
-138
-142
-150
-158
-167
-163
-138
-123
-113
-106
-100
-95
-91
-86
-82
-79
-75
-70
-62
-51
-34
-8
20
35
47
47
36
23
11
23
32
37
41
45
48
51
54
57
60
65
69
74
78
84
93
112
143
172
208
251
287
338
393
458
492
513
527
532
525
511
490
459
442
433
426
422
421
424
430
439
450
463
482
497
507
517
527
532
527
514
474
393
294
186
75
-39
-141
-179
-169
-134
-115
-101
-91
-76
-44
32
135
220
245
251
254
255
257
261
266
272
277
287
303
315
325
335
350
365
379
380
372
369
366
362
357
355
356
358
361
364
366
368
372
378
383
383
376
366
358
352
348
343
337
332
329
331
337
344
352
357
361
366
372
379
385
390
392
394
397
401
404
407
408
410
413
417
421
423
421
414
405
397
392
387
381
374
369
365
362
361
362
364
366
369
372
376
380
384
387
394
400
405
406
402
395
385
367
342
331
324
319
312
307
300
292
282
270
255
232
202
178
164
171
197
242
244
209
25
-364
-978
-1737
-2492
-3045
-3237
-3231
-3011
-2736
-2525
-2352
-2247
-2192
-2142
-2083
-2048
-2037
-2027
-2017
-2005
-1966
-1909
-1846
-1786
-1735
-1702
-1666
-1628
-1587
-1552
-1529
-1512
-1500
-1472
-1424
-1367
-1319
-1305
-1294
-1286
-1278
-1245
-1198
-1172
-1153
-1138
-1118
-1090
-1059
-1037
-1020
-1003
-987
-971
-956
-941
-927
-910
-888
-857
-828
-808
-796
-781
-759
-732
-706
-686
-675
-662
-648
-636
-627
-618
-612
-606
-600
-590
-576
-562
-547
-533
-521
-511
-502
-493
-483
-472
-459
-448
-434
-415
-397
-378
-346
-325
-319
-315
-311
-310
-310
-310
-310
-310
-310
-310
-311
-311
-313
-314
-310
-303
-293
-283
-269
-260
-255
-245
-228
-206
-188
-178
-172
-163
-151
-132
-112
-105
-102
-100
-98
-97
-95
-94
-92
-90
-88
-86
-84
-81
-78
-75
-67
-54
-48
-44
-38
-22
-10
-3
1
7
13
18
23
29
37
49
58
64
74
98
124
140
151
159
165
170
173
176
178
181
184
188
192
195
199
201
203
205
206
207
207
204
200
196
192
187
183
177
170
165
162
164
168
174
182
197
218
227
233
238
244
248
256
283
320
367
426
501
594
702
822
951
1078
1177
1205
1193
1107
957
800
669
576
512
430
326
235
196
173
151
129
91
48
28
21
34
73
114
151
178
186
179
159
126
92
80
81
93
105
115
124
131
136
141
144
148
151
154
156
158
161
165
184
214
222
228
231
232
231
229
225
219
210
193
177
166
173
193
227
239
240
233
229
225
222
219
215
210
203
191
178
185
193
198
204
210
216
223
231
235
231
222
208
188
173
164
165
177
195
219
244
272
304
335
369
396
414
426
410
390
371
353
335
318
310
306
303
300
297
292
287
282
277
271
264
261
266
278
292
311
335
343
347
350
354
357
357
352
345
337
325
306
285
256
228
211
198
186
177
170
161
148
132
111
86
73
58
39
26
17
14
22
40
69
92
101
95
69
52
37
28
21
15
12
12
14
16
19
23
29
15
-7
-30
-44
-54
-55
-44
-34
-25
-19
-15
-13
-9
-4
-12
-19
-23
-27
-29
-27
-24
-18
-9
14
40
57
59
51
28
-14
-55
-71
-89
-102
-114
-120
-112
-96
-82
-66
-57
-66
-86
-103
-123
-132
-128
-115
-81
-37
-13
1
11
15
8
-8
-55
-103
-152
-170
-180
-174
-126
-62
15
102
211
338
457
558
635
668
679
662
611
534
453
379
335
313
283
227
135
10
-118
-208
-231
-237
-240
-242
-243
-243
-240
-235
-229
-219
-204
-198
-193
-188
-185
-182
-179
-176
-171
-161
-145
-118
-75
-54
-42
-34
-30
-33
-42
-53
-66
-73
-84
-83
-51
-13
0
-2
-20
-36
-51
-61
-69
-82
-97
-108
-107
-78
-34
0
6
13
19
23
26
27
28
28
27
24
22
19
14
8
1
-5
-17
-40
-50
-55
-59
-64
-67
-65
-58
-47
-30
3
29
41
50
61
71
80
87
92
96
101
105
110
115
120
124
131
143
143
126
114
104
94
84
76
66
45
23
9
15
39
55
56
41
30
22
13
6
1
-2
-6
-14
-25
-12
0
9
16
16
5
-9
-24
-42
-61
-79
-97
-114
-129
-141
-150
-161
-173
-188
-205
-222
-240
-251
-256
-258
-261
-264
-266
-266
-267
-266
-262
-254
-245
-233
-208
-161
-113
-79
-54
-53
-91
-174
-294
-441
-592
-718
-781
-801
-781
-750
-714
-677
-648
-611
-553
-476
-390
-347
-330
-328
-336
-341
-344
-348
-351
-353
-354
-355
-355
-356
-355
-353
-350
-346
-341
-336
-331
-325
-315
-306
-301
-298
-291
-284
-295
-308
-317
-316
-300
-279
-249
-225
-211
-197
-183
-160
-126
-99
-79
-59
-31
5
48
91
120
140
149
146
141
138
136
135
134
133
131
130
129
126
123
120
117
115
113
110
108
104
94
81
62
50
39
28
21
20
25
35
51
80
120
134
141
147
152
156
159
162
163
165
166
166
168
169
172
178
151
106
72
61
57
54
53
50
46
40
34
27
18
6
-21
-63
-86
-101
-120
-144
-160
-173
-185
-193
-197
-198
-200
-201
-201
-201
-202
-203
-204
-206
-207
-207
-207
-206
-205
-204
-202
-197
-191
-185
-178
-171
-154
-110
-68
-38
-12
1
11
19
25
28
27
22
14
6
-1
-13
-22
-22
-11
3
19
39
56
69
83
98
106
94
72
60
50
40
31
24
19
16
14
12
12
13
15
20
27
35
45
84
178
298
422
526
612
674
708
763
855
969
1088
1189
1232
1255
1274
1295
1318
1340
1362
1374
1383
1391
1396
1399
1398
1396
1391
1385
1377
1369
1356
1339
1318
1287
1238
1180
1130
1083
1042
1013
991
967
934
902
876
852
813
752
687
643
592
545
501
460
422
377
340
318
297
279
268
259
252
245
238
230
224
215
203
176
133
96
53
17
-5
-26
-44
-70
-112
-152
-180
-206
-231
-256
-278
-287
-292
-297
-303
-307
-311
-313
-315
-318
-319
-321
-322
-323
-322
-322
-324
-331
-334
-329
-315
-274
-207
-104
40
214
391
552
669
707
679
593
470
354
245
162
115
36
-49
-146
-261
-375
-443
-455
-465
-473
-479
-485
-490
-494
-498
-500
-502
-503
-503
-502
-501
-499
-495
-492
-490
-488
-485
-481
-476
-470
-464
-458
-453
-446
-430
-411
-395
-380
-366
-354
-341
-330
-321
-317
-315
-314
-314
-314
-313
-313
-313
-314
-315
-315
-315
-316
-317
-318
-320
-323
-324
-324
-325
-326
-327
-327
-326
-323
-320
-318
-316
-314
-310
-306
-300
-295
-290
-284
-277
-262
-242
-224
-206
-189
-172
-155
-138
-122
-107
-95
-87
-79
-71
-64
-57
-51
-46
-41
-36
-31
-24
-16
-6
4
14
25
34
42
50
58
65
69
72
75
76
78
82
86
87
80
66
51
41
31
23
16
10
6
7
10
16
24
33
43
57
80
92
98
102
104
106
109
112
115
118
122
126
131
137
144
152
163
184
202
219
231
242
252
260
268
274
280
286
292
298
301
297
286
271
247
209
174
136
91
52
18
-17
-38
-50
-58
-63
-63
-58
-49
-38
-24
-5
2
6
11
18
17
3
-4
-9
-14
-18
-20
-22
-24
-24
-21
-15
-6
1
8
15
21
28
35
41
45
48
50
52
52
52
52
51
49
48
46
45
44
39
55
106
170
260
381
523
667
795
892
925
899
817
672
517
378
298
270
252
239
219
183
107
23
-57
-129
-154
-159
-161
-162
-164
-166
-167
-167
-165
-164
-162
-160
-157
-154
-151
-146
-142
-138
-135
-133
-130
-127
-124
-122
-120
-119
-119
-120
-122
-125
-129
-134
-140
-150
-168
-190
-220
-245
-258
-267
-265
-251
-243
-238
-234
-230
-225
-221
-217
-213
-207
-200
-192
-183
-166
-141
-137
-134
-131
-128
-127
-128
-133
-140
-145
-150
-156
-162
-168
-168
-161
-148
-137
-131
-126
-121
-116
-109
-103
-98
-95
-93
-91
-88
-85
-82
-80
-79
-79
-78
-76
-75
-73
-73
-75
-76
-78
-79
-81
-85
-89
-94
-98
-100
-97
-91
-83
-76
-71
-64
-57
-50
-43
-39
-36
-36
-36
-38
-42
-46
-52
-58
-63
-67
-71
-76
-82
-87
-91
-93
-92
-90
-89
-86
-83
-78
-73
-67
-62
-59
-56
-55
-54
-54
-57
-62
-69
-77
-85
-93
-107
-121
-132
-143
-152
-161
-169
-173
-171
-165
-157
-150
-144
-136
-127
-118
-105
-79
-48
-38
-33
-30
-28
-27
-25
-21
-17
-14
-10
-7
-3
0
3
13
35
52
64
74
81
81
76
70
66
62
57
52
49
49
50
54
58
62
69
81
82
70
63
57
51
47
46
47
51
56
66
98
155
220
306
413
529
650
763
861
929
952
931
868
744
613
491
388
322
298
286
258
201
130
84
75
68
62
58
55
53
50
48
46
46
47
49
52
54
56
57
60
63
66
69
73
77
84
93
104
115
129
154
195
230
256
283
319
364
390
403
412
420
426
431
435
438
441
446
455
460
450
427
390
347
313
269
242
231
222
214
208
202
197
193
190
186
181
173
158
142
134
129
125
121
118
116
114
114
115
117
120
125
131
138
146
166
196
207
214
219
222
223
221
215
206
197
191
184
178
171
166
163
160
158
156
154
150
144
156
168
178
184
177
162
148
133
118
102
75
53
47
43
39
34
27
17
3
-14
-42
-63
-90
-129
-153
-167
-178
-186
-190
-189
-183
-175
-165
-155
-141
-133
-136
-140
-143
-147
-150
-152
-152
-149
-139
-127
-114
-101
-82
-66
-58
-51
-44
-36
-30
-30
-36
-42
-46
-52
-57
-61
-64
-65
-64
-61
-58
-54
-49
-42
-31
-15
4
27
52
67
86
118
147
165
173
161
137
118
98
82
72
63
51
35
16
3
-4
-11
-19
-26
-34
-43
-55
-64
-65
-54
-40
-30
-20
-11
-5
-3
-4
-8
-12
-17
-22
-28
-34
-38
-36
-28
-16
3
36
90
168
274
397
522
632
706
734
735
714
657
581
489
381
269
150
28
-67
-126
-162
-191
-213
-234
-249
-260
-271
-285
-302
-336
-366
-384
-379
-344
-307
-262
-228
-212
-202
-196
-196
-201
-207
-215
-226
-224
-201
-181
-163
-151
-146
-144
-143
-142
-139
-135
-133
-132
-133
-135
-139
-143
-145
-148
-152
-158
-162
-164
-166
-167
-169
-170
-174
-177
-178
-178
-177
-176
-175
-172
-166
-158
-143
-107
-81
-68
-60
-53
-48
-44
-40
-35
-28
-41
-50
-56
-60
-62
-64
-66
-68
-67
-63
-57
-48
-37
-24
-11
3
30
55
70
83
95
110
120
122
119
115
108
99
115
127
132
137
140
142
144
147
152
158
164
170
176
183
192
207
223
235
243
251
266
300
334
355
359
359
359
359
360
360
361
361
362
365
370
376
380
384
387
392
399
406
411
415
419
424
429
436
443
453
466
477
484
489
495
500
503
505
508
513
518
522
527
530
531
533
535
537
541
545
550
556
563
570
578
588
599
610
622
633
645
658
671
681
692
702
711
719
728
740
754
768
785
808
839
841
825
814
806
796
785
776
765
740
708
693
685
677
666
652
634
600
544
488
440
398
353
307
266
243
230
220
209
199
186
161
130
114
102
124
188
292
431
621
827
961
955
788
288
-467
-1369
-2232
-2874
-3104
-3107
-2890
-2743
-2727
-2790
-2939
-3035
-3067
-3030
-2969
-2909
-2864
-2831
-2805
-2781
-2757
-2730
-2695
-2645
-2591
-2542
-2497
-2458
-2425
-2391
-2358
-2322
-2283
-2242
-2196
-2147
-2092
-2044
-2001
-1959
-1919
-1877
-1833
-1791
-1749
-1710
-1674
-1635
-1607
-1589
-1573
-1558
-1535
-1500
-1464
-1425
-1382
-1339
-1315
-1304
-1296
-1289
-1280
-1272
-1263
-1252
-1235
-1206
-1177
-1139
-1089
-1047
-1017
-996
-976
-955
-931
-907
-883
-853
-827
-805
-783
-762
-739
-711
-683
-647
-591
-523
-460
-402
-343
-313
-300
-289
-280
-274
-267
-262
-257
-253
-247
-237
-216
-168
-140
-129
-119
-112
-105
-100
-95
-89
-84
-80
-77
-75
-74
-75
-73
-70
-64
-58
-53
-48
-43
-37
-29
-18
-5
7
18
31
50
70
87
97
105
113
121
127
134
141
148
153
158
164
170
177
184
193
206
222
241
264
295
319
336
361
401
447
480
497
511
509
480
451
424
399
375
347
314
273
245
223
207
198
199
207
219
233
249
272
297
325
339
349
357
364
371
378
385
392
399
405
411
417
421
424
426
428
430
432
435
439
444
449
455
462
468
475
482
489
497
506
524
556
565
567
568
568
568
569
570
572
573
573
573
573
574
575
575
575
576
577
579
582
588
596
606
628
674
747
839
951
1075
1202
1306
1346
1348
1323
1299
1277
1256
1238
1179
1068
917
783
680
617
550
488
395
317
289
291
323
367
422
472
522
555
576
589
588
573
554
538
519
504
502
513
531
553
584
610
628
642
651
651
647
641
634
624
625
642
659
677
676
651
623
592
564
529
474
434
414
399
385
372
361
349
333
311
289
268
246
224
201
176
150
125
99
76
48
15
-27
-48
-61
-73
-83
-90
-95
-99
-100
-98
-95
-89
-82
-73
-65
-56
-47
-38
-29
-20
-10
0
10
19
27
33
37
37
33
27
20
10
1
-8
-17
-25
-30
-32
-34
-37
-41
-46
-54
-62
-71
-81
-91
-100
-107
-113
-116
-117
-117
-118
-120
-124
-129
-137
-147
-157
-168
-178
-187
-193
-198
-202
-205
-206
-206
-206
-206
-209
-216
-223
-230
-233
-232
-230
-226
-223
-220
-215
-209
-202
-195
-190
-186
-181
-175
-167
-159
-151
-145
-137
-128
-118
-108
-97
-88
-82
-77
-71
-66
-62
-57
-52
-46
-41
-38
-36
-36
-36
-37
-40
-41
-42
-44
-46
-47
-48
-49
-50
-49
-47
-44
-42
-40
-38
-38
-39
-41
-44
-47
-52
-57
-62
-66
-71
-76
-81
-87
-92
-97
-103
-108
-114
-120
-126
-130
-131
-131
-129
-126
-122
-116
-108
-100
-92
-83
-73
-60
-44
-26
-12
0
20
95
202
314
430
564
703
804
837
815
748
629
509
440
372
305
236
175
85
-31
-149
-208
-233
-246
-256
-263
-265
-262
-252
-239
-227
-218
-210
-202
-192
-183
-174
-167
-160
-155
-150
-146
-143
-141
-139
-139
-140
-142
-142
-141
-139
-136
-132
-130
-129
-127
-126
-123
-120
-117
-114
-112
-108
-103
-98
-92
-87
-82
-77
-72
-66
-60
-53
-48
-43
-37
-32
-26
-23
-20
-19
-17
-15
-13
-11
-9
-7
-4
-1
3
8
12
15
17
19
21
23
26
29
33
38
45
53
61
69
76
83
88
91
93
94
93
91
87
82
76
69
61
52
42
33
23
14
4
-4
-12
-19
-28
-36
-44
-51
-59
-67
-75
-82
-87
-90
-90
-87
-83
-77
-70
-62
-54
-45
-38
-31
-24
-18
-12
-6
1
10
19
29
37
43
44
39
31
19
7
-5
-17
-27
-38
-50
-62
-73
-82
-90
-97
-105
-113
-121
-129
-135
-139
-143
-146
-150
-154
-158
-161
-163
-165
-168
-171
-175
-178
-180
-180
-179
-177
-174
-171
-166
-160
-153
-144
-135
-126
-117
-105
-83
-57
-36
-15
16
50
58
61
64
67
69
70
71
70
70
70
69
67
63
58
53
50
47
45
44
44
43
41
40
38
35
32
29
27
25
24
23
24
25
27
27
27
26
26
26
28
38
51
66
80
94
111
131
150
182
289
415
548
679
744
789
818
787
694
569
444
326
213
143
70
5
-52
-115
-170
-209
-237
-261
-284
-279
-236
-201
-174
-150
-131
-116
-100
-75
-38
4
64
112
128
137
142
145
142
125
100
75
56
36
16
0
-11
-14
-11
0
16
38
78
154
201
227
248
272
294
314
336
360
387
415
440
455
465
474
481
489
497
504
511
515
519
523
527
531
533
536
541
551
561
566
559
540
514
481
433
394
342
278
213
162
141
129
120
114
111
112
114
117
119
121
123
125
128
129
128
121
110
96
81
59
23
-3
-18
-28
-36
-41
-44
-47
-47
-44
-36
-25
-13
0
15
38
59
75
87
96
103
108
113
118
121
121
118
113
106
98
89
78
63
33
-12
-32
-41
-49
-56
-62
-66
-69
-72
-74
-76
-79
-82
-85
-85
-85
-86
-87
-89
-89
-90
-92
-94
-96
-99
-103
-106
-108
-110
-112
-114
-113
-113
-114
-115
-116
-117
-117
-116
-114
-111
-109
-108
-108
-106
-106
-106
-108
-111
-113
-116
-117
-117
-117
-117
-118
-118
-117
-115
-115
-120
-115
-82
-61
-45
-30
-19
-15
-20
-33
-51
-68
-82
-97
-114
-130
-145
-157
-168
-177
-188
-201
-221
-237
-245
-251
-254
-258
-262
-266
-269
-271
-269
-263
-253
-239
-223
-198
-154
-126
-60
19
122
237
349
462
578
683
750
774
772
739
691
633
544
439
316
210
126
41
-16
-72
-109
-120
-133
-127
-65
29
73
95
108
121
138
158
195
249
285
308
326
340
346
351
356
360
364
368
370
371
372
373
375
377
379
379
379
381
385
390
395
400
405
411
417
427
433
433
422
404
384
358
332
309
288
268
248
219
169
108
56
19
-10
-49
-72
-85
-97
-108
-120
-133
-146
-160
-174
-191
-214
-233
-240
-232
-218
-200
-172
-124
-85
-54
-14
7
20
30
38
45
51
53
50
42
33
23
13
4
-4
-13
-23
-32
-40
-46
-53
-61
-69
-76
-81
-86
-92
-101
-114
-135
-159
-185
-206
-224
-242
-257
-268
-278
-292
-312
-310
-285
-269
-257
-245
-237
-234
-237
-243
-252
-261
-271
-280
-287
-294
-301
-306
-309
-312
-315
-316
-316
-313
-308
-301
-294
-286
-278
-263
-243
-218
-190
-169
-151
-134
-120
-108
-98
-89
-82
-79
-76
-72
-67
-63
-60
-57
-53
-49
-45
-41
-38
-35
-33
-30
-25
-13
6
29
58
105
161
201
234
265
306
348
373
390
397
385
355
321
280
247
213
179
145
123
107
96
89
84
79
73
68
64
61
58
55
52
49
45
41
37
32
28
22
16
10
3
-10
-40
-74
-102
-126
-142
-149
-152
-158
-165
-129
-69
-6
94
200
315
427
535
561
564
565
565
563
556
542
520
476
387
236
82
-29
-64
-85
-98
-106
-112
-116
-120
-126
-131
-136
-139
-139
-131
-120
-108
-97
-87
-73
-58
-51
-54
-66
-82
-100
-124
-146
-169
-188
-204
-219
-234
-247
-262
-292
-333
-357
-374
-371
-339
-304
-266
-236
-198
-149
-89
-58
-52
-49
-45
-43
-42
-43
-44
-44
-44
-44
-44
-46
-49
-53
-56
-58
-60
-64
-67
-65
-52
-32
-13
7
24
37
46
50
54
58
63
68
72
75
76
77
77
77
76
74
69
62
56
52
49
45
41
34
27
19
10
1
-6
-15
-22
-27
-30
-31
-31
-31
-32
-36
-40
-42
-38
-26
-11
0
6
12
19
27
36
43
47
50
52
53
53
52
49
45
41
38
38
38
38
37
36
35
33
32
30
27
23
19
16
15
14
15
15
17
22
31
41
52
63
74
82
91
99
110
121
131
140
146
151
153
152
148
141
132
121
111
102
92
77
60
45
35
32
35
42
52
63
78
103
117
101
72
57
45
35
26
19
16
16
16
17
20
22
22
24
30
37
44
48
50
50
48
44
39
34
28
21
15
9
5
1
-2
-4
-4
-3
0
5
12
18
24
31
40
49
59
70
97
128
155
186
242
326
411
486
601
715
843
894
923
941
889
799
708
626
558
503
453
374
253
111
-29
-158
-192
-195
-194
-193
-192
-192
-192
-194
-197
-201
-206
-212
-217
-221
-226
-233
-242
-251
-262
-278
-296
-309
-310
-305
-297
-290
-286
-281
-275
-268
-262
-258
-257
-258
-261
-265
-268
-271
-274
-279
-283
-287
-290
-292
-292
-290
-285
-277
-265
-252
-237
-221
-200
-161
-131
-108
-96
-87
-82
-79
-77
-76
-75
-76
-77
-78
-79
-78
-75
-70
-65
-61
-56
-50
-44
-38
-31
-24
-16
-8
3
25
50
73
92
111
129
147
165
181
194
200
202
201
199
198
196
196
196
195
196
196
195
191
186
181
175
166
159
178
216
246
275
300
319
333
345
363
386
414
449
474
494
511
525
537
548
557
565
575
585
594
597
590
572
550
526
504
479
453
432
415
401
388
375
363
350
334
314
290
270
255
243
231
219
209
202
198
196
197
200
205
214
227
243
262
289
340
380
434
498
552
588
596
601
605
608
609
607
603
596
590
582
578
595
630
659
689
714
733
751
770
788
809
832
856
885
921
923
887
786
544
179
-284
-794
-1265
-1591
-1702
-1745
-1783
-1875
-2051
-2240
-2360
-2400
-2361
-2245
-2102
-2021
-1964
-1928
-1900
-1874
-1832
-1766
-1692
-1616
-1541
-1468
-1395
-1329
-1228
-1125
-1024
-915
-794
-672
-609
-576
-555
-540
-534
-543
-561
-578
-587
-592
-598
-603
-611
-619
-627
-637
-647
-656
-664
-673
-681
-691
-705
-728
-776
-814
-843
-889
-955
-1026
-1096
-1137
-1161
-1179
-1187
-1187
-1180
-1166
-1146
-1111
-1051
-1002
-967
-931
-907
-891
-878
-863
-847
-830
-806
-761
-683
-617
-568
-530
-482
-418
-368
-337
-310
-288
-261
-229
-186
-158
-138
-122
-113
-114
-124
-140
-160
-183
-213
-237
-258
-270
-280
-290
-297
-302
-306
-309
-309
-306
-301
-294
-286
-275
-264
-252
-237
-220
-203
-190
-177
-160
-126
-65
-36
-28
-21
-17
-15
-11
-8
-4
0
4
9
13
17
19
20
23
28
34
43
57
86
115
144
163
178
191
200
207
214
219
224
228
234
246
264
226
199
184
170
160
153
150
152
158
167
177
189
200
212
226
239
253
269
285
298
310
321
332
341
350
360
370
379
387
395
405
416
427
449
489
503
511
519
527
530
517
487
457
439
425
411
398
384
372
362
355
351
346
341
336
332
328
323
315
305
292
278
260
236
201
171
155
146
139
132
126
117
107
98
89
78
64
31
-36
-69
-80
-89
-95
-101
-107
-114
-122
-129
-135
-140
-147
-154
-162
-172
-187
-217
-242
-261
-275
-286
-297
-305
-311
-312
-309
-301
-286
-265
-227
-162
-55
65
196
340
484
618
736
772
783
791
788
752
656
522
347
177
28
-120
-249
-315
-364
-399
-417
-435
-451
-403
-361
-336
-316
-301
-289
-280
-270
-253
-225
-177
-134
-98
-67
-40
3
64
122
183
236
274
308
325
335
343
350
354
357
359
359
356
351
345
338
328
318
308
297
287
276
266
256
245
234
224
214
202
186
159
112
82
44
-10
-76
-133
-185
-240
-296
-363
-442
-518
-596
-662
-717
-776
-808
-823
-835
-843
-846
-841
-828
-808
-782
-745
-693
-676
-664
-651
-644
-657
-693
-750
-834
-920
-996
-1043
-1075
-1089
-1075
-1047
-1029
-1016
-1004
-992
-978
-965
-952
-935
-913
-865
-786
-713
-638
-602
-587
-575
-565
-557
-549
-540
-532
-527
-522
-516
-509
-502
-490
-467
-441
-411
-381
-350
-321
-293
-248
-184
-131
-91
-45
15
91
165
238
289
323
352
378
404
430
454
476
512
568
610
638
649
633
595
537
455
324
169
8
-144
-285
-408
-521
-634
-748
-794
-814
-828
-826
-797
-720
-638
-539
-426
-311
-202
-107
-51
-2
27
-2
-51
-113
-181
-244
-344
-466
-597
-729
-852
-990
-1144
-1289
-1420
-1535
-1624
-1668
-1692
-1709
-1716
-1705
-1681
-1655
-1621
-1586
-1498
-1381
-1238
-1067
-897
-768
-670
-573
-466
-387
-360
-380
-442
-535
-637
-737
-818
-866
-918
-951
-974
-970
-910
-809
-690
-578
-476
-383
-293
-200
-170
-185
-233
-378
-544
-696
-809
-848
-863
-869
-892
-980
-1098
-1158
-1178
-1131
-992
-821
-666
-519
-381
-249
-119
0
106
209
264
315
360
398
440
520
621
730
819
891
931
997
1070
1170
1280
1378
1475
1569
1662
1781
1933
2081
2197
2268
2295
2317
2345
2390
2432
2460
2461
2431
2350
2259
2179
2109
2029
1937
1833
1726
1633
1556
1472
1367
1240
1101
972
885
857
871
909
993
1095
1199
1285
1348
1392
1480
1552
1578
1580
1563
1514
1441
1344
1280
1289
1401
1626
1885
2138
2358
2523
2651
2762
2849
2915
2969
3021
3080
3133
3151
3155
3158
3161
3161
3157
3145
3113
3059
2974
2864
2771
2701
2632
2569
2549
2539
2546
2578
2600
2619
2615
2562
2436
2283
2148
2012
1850
1673
1506
1371
1258
1177
1140
1111
1078
1050
1029
1012
990
964
923
879
816
749
695
646
578
490
415
368
311
226
138
63
-20
-112
-182
-224
-267
-318
-367
-413
-449
-474
-524
-585
-630
-646
-653
-657
-655
-639
-598
-544
-482
-422
-381
-366
-364
-371
-395
-441
-494
-546
-606
-680
-770
-866
-965
-1063
-1148
-1211
-1261
-1307
-1341
-1351
-1357
-1362
-1361
-1355
-1346
-1334
-1312
-1286
-1262
-1239
-1215
-1170
-1106
-1045
-1004
-964
-917
-892
-856
-809
-771
-748
-724
-709
-701
-698
-718
-744
-764
-774
-793
-833
-854
-869
-879
-877
-861
-824
-769
-689
-611
-532
-443
-368
-334
-323
-337
-379
-444
-505
-554
-595
-667
-773
-901
-1076
-1277
-1444
-1540
-1595
-1652
-1671
-1658
-1639
-1624
-1616
-1611
-1610
-1617
-1642
-1682
-1697
-1691
-1672
-1624
-1576
-1535
-1497
-1464
-1426
-1412
-1408
-1405
-1404
-1404
-1406
-1403
-1399
-1395
-1391
-1384
-1354
-1316
-1271
-1248
-1210
-1149
-1079
-1012
-945
-889
-840
-777
-709
-643
-585
-555
-544
-538
-538
-545
-556
-588
-625
-659
-696
-745
-794
-835
-877
-901
-907
-914
-918
-919
-920
-918
-914
-908
-902
-890
-872
-857
-854
-869
-867
-836
-792
-753
-706
-665
-642
-611
-548
-454
-368
-335
-323
-315
-313
-317
-324
-336
-354
-389
-431
-448
-453
-456
-457
-455
-452
-447
-442
-433
-408
-356
-296
-221
-133
-45
36
93
138
202
307
442
570
668
699
692
629
575
532
492
477
461
439
417
405
400
403
414
441
477
494
501
506
509
513
521
530
549
581
612
646
681
693
689
687
683
671
656
617
569
533
511
495
481
469
452
417
400
405
447
499
535
558
579
600
631
673
718
749
759
770
779
808
857
899
919
929
934
926
916
906
900
900
902
901
897
891
885
877
870
863
850
829
807
784
772
764
753
745
739
732
716
681
647
628
612
581
532
472
416
372
339
319
302
290
283
291
334
415
518
630
741
846
941
1014
1034
1029
989
909
822
749
669
575
477
383
285
191
108
40
-9
-41
-54
-55
-47
-33
-3
20
27
25
16
-4
-32
-49
-57
-59
-55
-47
-34
-9
16
48
67
72
57
31
12
8
11
30
48
52
34
18
11
12
17
22
25
13
-20
-41
-49
-47
-35
-31
-57
-97
-143
-187
-232
-268
-305
-373
-459
-533
-575
-615
-672
-733
-792
-850
-888
-885
-860
-820
-807
-822
-842
-858
-862
-860
-857
-862
-891
-929
-951
-960
-962
-960
-965
-989
-1039
-1089
-1135
-1162
-1183
-1216
-1242
-1269
-1300
-1313
-1323
-1332
-1344
-1362
-1368
-1359
-1343
-1300
-1264
-1238
-1214
-1188
-1161
-1133
-1116
-1100
-1085
-1069
-1048
-1014
-964
-910
-892
-889
-894
-908
-940
-973
-988
-982
-956
-921
-888
-853
-811
-780
-764
-739
-709
-696
-694
-697
-701
-692
-653
-603
-557
-523
-509
-513
-521
-527
-516
-496
-478
-462
-449
-430
-403
-369
-339
-322
-296
-269
-246
