-11
-11
-12
-12
-13
-17
-29
-30
-17
-9
-3
2
6
8
7
4
0
-7
-21
-49
-75
-93
-106
-114
-120
-124
-124
-118
-107
-90
-60
-29
-3
4
7
10
12
15
18
20
22
23
24
25
25
25
25
24
24
22
21
20
18
17
17
16
15
14
13
10
2
3
20
35
49
59
66
72
79
84
87
88
87
86
85
84
83
82
84
87
91
94
97
100
104
106
107
107
105
101
96
89
81
69
47
36
27
19
21
37
54
72
88
104
120
136
147
155
161
164
166
164
157
149
139
126
106
93
86
82
79
76
74
72
70
67
64
60
56
52
46
37
20
7
-5
-18
-29
-38
-46
-52
-52
-45
-35
-31
-27
-25
-21
-17
-13
-9
-5
-4
-4
-5
-8
-13
-17
-22
-27
-31
-35
-43
-72
-89
-93
-97
-101
-105
-109
-112
-115
-117
-118
-120
-120
-120
-119
-117
-115
-114
-112
-111
-110
-107
-105
-102
-98
-77
-34
17
70
125
184
204
215
210
166
94
12
-58
-111
-139
-165
-185
-196
-203
-205
-196
-179
-163
-146
-132
-120
-100
-71
-58
-53
-50
-48
-47
-46
-46
-45
-44
-44
-43
-41
-40
-38
-37
-35
-33
-30
-26
-21
-15
-10
-3
11
25
28
29
30
32
33
35
36
37
40
46
53
62
70
77
85
91
96
100
104
108
113
119
123
126
127
123
117
111
105
96
90
90
98
107
111
113
116
120
123
127
130
133
135
137
138
138
136
135
133
131
127
123
118
112
106
100
84
46
25
13
3
-1
0
6
18
29
41
56
69
72
73
73
75
76
77
79
80
81
82
85
89
95
102
116
146
168
181
188
190
192
195
198
200
195
183
175
167
160
156
159
164
170
175
182
187
187
181
172
158
134
112
96
89
84
79
77
85
98
104
108
111
114
116
119
123
127
130
132
132
131
129
128
127
124
121
118
114
112
111
110
107
103
100
99
101
104
106
108
110
115
120
125
125
122
116
111
108
104
99
94
90
88
89
92
95
98
102
107
112
118
124
132
143
164
195
212
223
229
229
222
211
194
165
132
102
80
62
45
23
-6
-31
-46
-59
-70
-87
-115
-132
-141
-148
-153
-156
-155
-151
-146
-141
-136
-133
-128
-123
-119
-116
-117
-118
-120
-122
-124
-126
-130
-133
-135
-133
-126
-116
-81
-31
-6
9
21
20
4
-41
-87
-143
-202
-259
-276
-280
-283
-285
-286
-286
-284
-279
-273
-266
-261
-253
-244
-234
-223
-214
-204
-197
-197
-202
-208
-211
-214
-217
-220
-222
-223
-221
-216
-211
-206
-202
-200
-197
-193
-189
-186
-183
-180
-177
-173
-168
-164
-160
-155
-147
-138
-129
-121
-113
-107
-99
-92
-85
-82
-84
-89
-96
-103
-110
-119
-128
-137
-144
-152
-167
-191
-206
-216
-221
-220
-211
-196
-172
-141
-122
-107
-85
-69
-56
-46
-41
-44
-54
-65
-78
-94
-102
-96
-83
-62
-35
-16
-3
-3
-14
-42
-89
-118
-134
-142
-148
-152
-154
-154
-152
-147
-140
-135
-131
-125
-120
-114
-111
-111
-114
-119
-126
-134
-142
-154
-165
-166
-155
-141
-129
-118
-109
-102
-96
-90
-85
-81
-78
-77
-77
-77
-76
-74
-72
-70
-68
-66
-65
-63
-61
-59
-57
-54
-50
-45
-41
-36
-31
-25
-19
-13
-8
-3
0
2
5
8
11
15
19
24
27
31
35
40
44
47
49
48
46
43
39
35
30
24
14
4
-5
-15
-27
-27
-13
-2
6
13
17
14
5
-5
-19
-40
-57
-69
-77
-85
-93
-102
-111
-124
-143
-155
-165
-175
-175
-163
-131
-87
-38
-6
29
65
88
105
112
108
98
80
64
58
55
52
50
50
53
57
61
67
70
69
55
38
27
16
6
-3
-9
-11
-11
-10
-8
-6
-3
2
0
-17
-27
-35
-41
-47
-51
-52
-51
-50
-47
-42
-36
-24
-3
26
77
150
241
336
415
461
464
429
322
176
33
-75
-111
-123
-101
-76
-55
-53
-67
-89
-109
-119
-126
-129
-125
-118
-111
-104
-101
-110
-124
-136
-146
-155
-158
-154
-147
-136
-119
-90
-58
-30
13
59
88
122
142
148
153
156
155
145
132
122
114
107
100
94
89
84
79
73
68
59
53
53
61
73
84
98
113
129
140
148
155
162
169
175
180
187
200
230
259
280
296
309
320
324
314
297
288
282
277
273
269
265
261
258
255
252
249
246
242
238
232
219
205
192
182
170
158
149
141
134
130
130
135
143
152
163
177
187
193
198
203
208
211
211
205
195
184
173
161
148
137
123
98
63
40
24
24
44
73
104
116
121
125
128
133
139
144
150
158
168
182
195
207
228
251
261
269
273
267
253
237
217
199
192
188
185
182
179
176
173
170
167
165
162
158
155
152
149
142
127
114
104
89
63
46
38
31
24
16
9
0
-12
-33
-49
-65
-81
-99
-114
-127
-141
-156
-176
-196
-203
-206
-208
-209
-211
-213
-215
-218
-221
-225
-230
-236
-250
-278
-296
-307
-310
-304
-292
-279
-264
-248
-232
-215
-194
-183
-177
-172
-168
-164
-161
-157
-154
-151
-149
-148
-146
-145
-143
-137
-125
-115
-107
-100
-96
-100
-107
-110
-112
-114
-117
-119
-122
-126
-130
-134
-138
-142
-145
-148
-151
-156
-161
-166
-170
-172
-171
-168
-165
-160
-154
-146
-130
-113
-94
-77
-71
-67
-62
-64
-77
-84
-88
-92
-96
-98
-100
-102
-103
-104
-103
-100
-97
-93
-88
-83
-77
-70
-59
-48
-43
-38
-34
-29
-26
-27
-34
-42
-49
-58
-64
-65
-56
-39
11
79
158
237
307
336
346
327
267
185
96
13
-60
-110
-128
-133
-127
-114
-96
-68
-42
-14
2
12
18
21
19
12
2
-10
-29
-39
-47
-54
-57
-51
-38
-19
6
17
22
26
29
31
31
30
28
23
18
13
7
0
-8
-12
-10
-3
5
15
28
43
60
74
89
101
110
118
124
130
135
141
149
156
164
171
177
183
189
192
195
197
198
202
208
187
170
160
152
145
141
137
134
128
120
121
133
141
147
152
156
159
158
153
145
136
127
117
103
89
81
76
73
72
71
69
67
65
62
60
58
56
54
52
50
47
45
43
40
37
29
22
22
30
40
51
64
75
83
90
97
102
104
101
92
84
80
76
73
69
66
62
58
53
48
43
39
35
30
25
18
2
-11
-24
-31
-36
-41
-46
-50
-55
-60
-64
-66
-68
-70
-73
-76
-81
-89
-97
-98
-94
-90
-87
-85
-82
-79
-76
-73
-69
-64
-59
-54
-49
-46
-43
-38
-32
-27
-25
-28
-36
-45
-53
-59
-65
-73
-81
-87
-92
-92
-91
-87
-83
-78
-73
-69
-62
-55
-49
-46
-44
-43
-43
-41
-39
-37
-35
-34
-33
-33
-32
-30
-30
-29
-29
-28
-28
-26
-25
-25
-29
-35
-43
-56
-83
-102
-113
-125
-140
-154
-166
-176
-184
-190
-194
-197
-200
-202
-205
-208
-210
-212
-212
-210
-205
-199
-193
-186
-177
-167
-159
-150
-135
-109
-81
-50
-25
-8
5
17
24
29
34
37
39
40
39
37
33
28
22
15
8
-1
-9
-13
-10
-5
5
35
85
147
211
270
320
339
339
318
260
158
46
-54
-131
-155
-166
-163
-125
-65
-36
-16
-4
-25
-49
-68
-71
-61
-34
24
47
59
68
65
45
32
24
17
13
8
2
-2
-7
-13
-18
-23
-29
-35
-40
-41
-38
-33
-27
-20
-7
20
36
45
53
58
60
59
57
54
51
49
47
44
42
40
38
36
34
32
31
31
31
31
32
32
33
34
36
37
38
38
39
40
43
46
48
50
51
52
54
56
58
61
63
66
70
73
77
79
80
80
79
79
79
78
75
72
69
67
66
64
61
58
49
34
33
33
32
29
27
25
24
27
32
36
40
43
48
53
58
61
59
53
45
37
32
29
26
21
15
9
5
2
0
-1
-4
-7
-9
-9
-6
-3
0
3
6
11
16
20
23
24
25
25
26
28
32
35
37
39
42
45
49
52
53
53
52
51
50
50
49
47
46
45
45
46
49
52
54
56
57
59
61
61
61
61
62
65
73
82
90
94
94
93
91
89
86
82
76
72
70
70
72
74
76
80
88
89
80
75
70
66
62
61
63
68
73
79
85
94
103
109
111
107
102
97
92
85
80
81
93
108
118
128
137
145
149
149
145
139
130
121
113
102
91
84
79
76
73
71
70
68
67
67
66
65
64
64
65
69
72
77
81
87
93
99
106
114
122
132
148
209
281
364
391
413
352
227
70
-68
-137
-162
-171
-164
-148
-131
-109
-85
-50
-26
-19
-13
-16
-35
-46
-55
-63
-70
-73
-74
-72
-67
-62
-57
-52
-48
-44
-40
-36
-32
-28
-25
-22
-19
-17
-14
-12
-10
-9
-7
-7
-8
-9
-10
-10
-9
-9
-7
-6
-5
-3
-1
1
3
5
8
11
16
21
29
43
55
65
72
78
83
87
90
92
92
88
82
73
63
51
33
1
-16
-34
-52
-67
-75
-80
-84
-89
-92
-96
-98
-101
-104
-107
-112
-117
-122
-127
-131
-136
-139
-142
-145
-146
-146
-145
-145
-146
-147
-148
-149
-149
-149
-149
-149
-149
-149
-146
-144
-141
-139
-137
-136
-135
-133
-128
-123
-125
-135
-148
-156
-163
-169
-173
-174
-172
-167
-160
-154
-150
-146
-143
-140
-136
-133
-129
-124
-119
-115
-112
-108
-106
-103
-101
-99
-97
-92
-83
-73
-69
-71
-78
-89
-102
-122
-139
-149
-154
-159
-164
-169
-176
-182
-188
-194
-202
-213
-240
-281
-295
-302
-307
-311
-313
-316
-317
-315
-311
-305
-297
-288
-277
-262
-247
-237
-228
-212
-179
-110
-53
-32
-25
-32
-44
-51
-57
-61
-65
-67
-69
-68
-64
-61
-57
-53
-48
-43
-34
-26
-20
-20
-28
-38
-49
-58
-67
-76
-83
-86
-83
-77
-67
-54
-37
-12
0
5
8
10
12
13
14
15
17
19
21
24
28
32
35
38
42
45
48
50
53
56
61
66
71
75
78
80
80
80
79
78
76
74
71
67
64
62
64
73
85
106
140
197
278
376
467
499
489
404
265
122
18
-21
-19
2
14
15
9
2
-3
11
28
42
43
31
23
16
9
6
7
11
16
21
23
25
27
28
30
31
33
34
35
34
33
32
31
30
29
28
27
25
24
23
20
17
15
13
12
13
16
21
26
32
44
44
32
14
-11
-27
-37
-44
-46
-43
-36
-27
-15
1
16
26
33
39
42
44
45
46
48
50
53
51
40
33
27
22
18
17
16
17
17
18
21
14
-10
-35
-50
-58
-64
-68
-69
-67
-63
-59
-55
-52
-49
-45
-42
-39
-37
-37
-37
-39
-40
-42
-44
-48
-53
-54
-51
-46
-41
-35
-32
-36
-46
-75
-108
-120
-125
-129
-128
-116
-102
-88
-77
-68
-59
-59
-68
-93
-129
-150
-173
-195
-218
-238
-255
-265
-258
-239
-204
-172
-142
-110
-88
-63
-39
-14
2
9
13
16
18
14
6
-3
-14
-28
-36
-33
-27
-22
-16
-13
-19
-31
-39
-45
-50
-54
-57
-59
-61
-62
-64
-66
-68
-70
-72
-75
-77
-77
-76
-74
-71
-67
-59
-42
-25
-13
-1
7
15
26
38
46
52
57
61
63
65
65
66
67
68
69
71
72
73
73
72
70
68
67
63
59
68
78
87
86
72
61
53
46
41
37
34
30
24
23
29
37
44
34
25
17
13
18
28
39
50
57
62
65
70
72
68
59
53
48
43
40
40
43
47
53
64
83
95
101
106
109
109
106
101
94
81
60
40
23
13
7
2
3
9
17
23
30
36
40
40
37
32
25
12
-9
-25
-33
-41
-49
-56
-62
-69
-74
-76
-74
-69
-60
-32
9
67
138
211
262
279
262
210
110
-6
-101
-140
-152
-144
-137
-133
-130
-127
-122
-104
-69
-47
-37
-31
-27
-24
-23
-23
-22
-23
-25
-28
-31
-35
-38
-42
-47
-52
-56
-57
-55
-50
-44
-37
-29
-15
-14
-23
-36
-54
-67
-73
-77
-78
-77
-73
-68
-60
-45
-22
-1
21
34
41
47
51
53
54
52
50
47
43
37
38
48
64
76
79
81
83
83
78
72
68
65
63
60
58
54
51
47
43
37
26
2
-22
-42
-59
-77
-94
-116
-130
-137
-142
-147
-152
-156
-160
-165
-178
-199
-230
-265
-295
-304
-296
-271
-233
-189
-143
-103
-68
-38
-27
-27
-35
-43
-50
-50
-44
-32
-31
-55
-89
-120
-131
-125
-103
-62
-21
15
28
32
36
35
26
18
11
8
8
9
12
15
5
-3
-8
-12
-15
-17
-14
-9
-2
3
10
22
29
29
28
27
26
25
25
27
31
36
40
45
47
42
32
24
16
9
5
1
-3
-8
4
25
49
68
81
93
103
111
117
121
124
127
130
131
131
128
125
121
118
113
109
103
97
93
91
89
87
85
83
82
81
80
78
76
75
73
71
68
65
61
57
52
48
43
36
24
13
0
-16
-38
-69
-82
-88
-93
-100
-108
-115
-122
-127
-127
-123
-116
-104
-88
-66
-40
-32
-29
-27
-26
-26
-31
-41
-70
-114
-151
-165
-172
-178
-186
-204
-228
-236
-225
-192
-158
-147
-139
-132
-120
-104
-93
-85
-80
-75
-62
-28
7
38
81
153
260
385
485
517
463
338
170
-2
-138
-205
-215
-196
-146
-100
-70
-51
-37
-29
-25
-29
-36
-42
-46
-51
-55
-59
-63
-68
-75
-75
-66
-54
-40
-31
-23
-13
12
38
65
71
72
73
72
66
60
52
38
26
17
11
11
15
20
27
36
48
63
82
91
97
102
104
105
103
100
94
74
54
48
44
44
47
52
59
68
78
83
87
90
92
94
95
96
95
93
90
86
81
72
52
39
31
26
22
19
17
14
11
9
6
3
0
-2
-6
-16
-33
-51
-68
-98
-124
-155
-164
-166
-168
-167
-158
-145
-129
-114
-98
-87
-79
-76
-80
-88
-96
-104
-114
-125
-143
-167
-189
-209
-226
-244
-262
-283
-307
-326
-343
-360
-371
-379
-379
-367
-335
-292
-252
-209
-163
-114
-75
-62
-55
-54
-57
-63
-74
-89
-101
-109
-99
-82
-65
-58
-55
-53
-52
-51
-50
-49
-49
-48
-47
-46
-45
-45
-45
-45
-45
-45
-45
-44
-42
-41
-38
-32
-43
-55
-65
-70
-72
-74
-76
-74
-60
-38
-16
-8
-4
-2
0
1
3
6
9
12
15
19
24
34
35
27
21
16
10
4
-2
-15
-33
-44
-51
-56
-61
-67
-72
-79
-88
-88
-78
-70
-63
-56
-49
-40
-24
-2
10
20
24
20
12
4
-2
-10
-19
-29
-37
-45
-53
-61
-67
-73
-79
-88
-93
-90
-78
-44
-7
14
33
45
51
56
61
60
53
43
33
42
67
114
180
263
367
477
562
588
575
484
323
143
-3
-80
-105
-89
-40
-15
-8
-3
4
14
25
37
44
50
54
58
61
62
60
54
47
40
30
23
23
30
39
43
45
48
51
53
55
58
61
64
66
69
71
72
73
74
75
76
78
82
86
89
91
90
88
83
76
50
12
-32
-74
-89
-92
-95
-97
-86
-67
-43
-16
10
35
50
53
54
56
57
58
59
59
58
56
53
49
43
36
23
9
-4
-19
-33
-42
-47
-52
-55
-58
-61
-64
-67
-69
-72
-75
-78
-81
-84
-87
-89
-91
-93
-96
-98
-100
-101
-101
-102
-102
-102
-102
-101
-100
-99
-98
-96
-93
-90
-94
-104
-116
-131
-140
-148
-155
-154
-139
-117
-92
-80
-75
-71
-66
-60
-54
-45
-25
-4
6
12
-4
-34
-55
-61
-63
-64
-66
-68
-71
-74
-78
-82
-87
-91
-89
-82
-71
-59
-43
-29
-18
-8
-1
4
8
11
13
15
16
17
19
21
22
22
22
22
22
22
23
24
27
29
29
27
25
24
22
20
18
17
17
18
20
23
25
29
33
34
34
34
32
30
28
27
29
34
37
41
44
49
53
60
68
58
40
28
25
24
23
22
21
21
20
19
19
19
20
21
23
24
26
27
30
34
43
48
53
57
56
49
44
40
37
34
30
26
20
11
1
-7
-15
-21
-26
-32
-40
-49
-63
-79
-95
-110
-125
-139
-151
-158
-150
-127
-85
-44
-11
18
51
85
114
129
142
158
188
236
298
360
410
438
437
405
318
200
82
-20
-90
-107
-113
-113
-104
-80
-52
-23
-2
5
4
-4
-13
-22
-22
-18
-5
21
50
62
68
72
61
44
25
13
6
1
-3
-6
-9
-12
-15
-18
-20
-21
-19
-16
-11
-7
-1
7
14
20
23
25
26
28
29
32
34
37
38
39
42
45
50
71
94
103
103
95
83
69
49
24
-9
-48
-82
-99
-115
-133
-156
-171
-179
-185
-185
-177
-154
-122
-82
-43
-11
4
17
32
59
99
123
123
100
64
34
23
20
18
16
15
14
13
14
17
23
32
43
50
54
49
32
8
-14
-23
-27
-29
-32
-34
-29
-20
-4
12
21
27
30
27
22
16
9
1
-3
-7
-11
-16
-20
-25
-28
-32
-36
-38
-39
-38
-35
-32
-27
-19
-4
6
13
18
23
28
33
33
27
17
5
-17
-47
-83
-117
-148
-178
-207
-238
-253
-259
-250
-221
-184
-134
-75
-33
-18
-10
-12
-24
-31
-34
-33
-27
-10
12
23
29
34
32
23
17
13
10
7
4
2
0
-3
-8
-16
-23
-29
-33
-35
-32
-25
-14
1
13
20
24
24
22
18
7
-15
-28
-39
-46
-53
-59
-64
-64
-58
-49
-36
-22
-7
3
10
14
14
11
7
2
-2
-8
-14
-20
-27
-27
-18
-9
0
4
7
9
11
12
13
14
15
15
13
12
10
8
6
3
0
-1
0
3
9
19
34
45
56
63
68
67
59
50
42
37
33
26
14
1
-14
-30
-41
-45
-47
-51
-50
-35
-5
30
63
81
87
80
69
57
39
15
2
-5
-11
-13
-10
-4
2
11
18
37
67
110
165
235
306
353
357
335
250
119
-27
-154
-217
-224
-199
-153
-105
-68
-50
-45
-43
-40
-37
-34
-31
-28
-23
-15
-9
-6
-2
0
0
-4
-9
-14
-20
-20
-11
-6
-2
0
3
5
7
8
10
12
15
17
20
22
25
30
36
36
30
21
7
-3
-10
-13
-10
-3
3
11
17
22
26
32
37
43
49
50
46
42
38
49
61
71
71
61
54
49
44
41
39
37
34
30
30
38
50
61
66
70
68
59
53
49
45
42
39
35
31
28
24
22
19
16
14
12
9
7
4
1
0
-2
-4
-5
-7
-10
-14
-17
-18
-18
-17
-16
-15
-13
-10
-6
-18
-29
-37
-44
-49
-53
-58
-64
-68
-63
-53
-44
-35
-29
-29
-29
-28
-27
-37
-68
-101
-130
-141
-140
-127
-92
-42
-9
2
2
-1
-7
-11
0
12
22
23
14
0
-17
-31
-40
-40
-31
-18
0
18
29
33
37
40
30
16
-2
-14
-21
-27
-31
-35
-39
-42
-46
-49
-52
-54
-57
-59
-67
-65
-42
-24
-14
-7
-4
-2
-3
-6
-10
-14
-16
-20
-25
-28
-29
-29
-27
-24
-21
-18
-15
-12
-7
0
6
18
30
25
9
-14
-42
-58
-69
-78
-87
-96
-103
-93
-81
-69
-61
-50
-35
-18
-3
5
9
13
17
21
24
28
34
34
27
22
18
15
12
9
7
4
-8
-31
-57
-70
-81
-92
-111
-138
-156
-163
-163
-152
-120
-89
-74
-61
-44
-32
-24
-19
-16
-13
-8
1
19
50
93
142
195
248
301
355
403
425
421
376
293
179
46
-80
-175
-213
-212
-172
-95
-10
43
61
49
28
12
5
1
-4
-11
-24
-42
-61
-81
-100
-118
-128
-134
-139
-141
-139
-135
-129
-125
-122
-120
-117
-114
-110
-107
-104
-100
-94
-82
-64
-41
-14
15
34
40
44
48
49
49
47
44
40
37
33
27
22
19
17
15
13
10
12
20
27
33
40
45
52
74
105
122
133
140
144
144
141
135
117
87
75
71
70
68
66
63
59
56
53
50
47
43
39
36
32
28
24
19
15
10
6
2
-3
-7
-8
-6
-3
0
3
-8
-28
-47
-64
-83
-98
-108
-113
-115
-117
-121
-116
-90
-78
-75
-74
-73
-72
-71
-70
-67
-63
-58
-53
-45
-32
-32
-43
-59
-76
-103
-128
-168
-210
-229
-237
-244
-247
-246
-239
-220
-192
-168
-160
-168
-181
-192
-199
-194
-172
-151
-129
-111
-98
-81
-60
-39
-20
-5
4
13
20
23
19
10
-2
-13
-17
-20
-13
-8
-4
-1
1
3
6
9
13
16
12
2
-8
-22
-32
-41
-50
-54
-58
-63
-63
-51
-20
9
20
24
21
13
0
-10
-13
-15
-14
-4
7
18
20
22
24
22
13
0
-11
-16
-19
-8
22
55
85
105
122
132
139
143
146
149
152
153
155
154
153
152
150
149
146
142
150
163
172
163
155
151
146
141
136
131
127
119
109
108
113
118
124
125
118
112
106
102
106
117
146
199
266
331
368
367
326
243
144
44
-46
-120
-172
-199
-208
-197
-180
-163
-156
-154
-153
-152
-151
-149
-148
-145
-144
-142
-140
-137
-134
-129
-118
-96
-85
-79
-75
-72
-69
-67
-65
-63
-60
-58
-55
-51
-47
-45
-45
-45
-46
-47
-50
-54
-40
-18
4
21
33
45
53
60
64
59
50
38
25
16
10
4
2
6
16
30
51
67
77
85
91
96
102
104
99
90
82
73
64
54
36
21
17
14
11
9
8
8
9
11
12
13
14
15
17
18
19
20
21
21
21
23
25
8
-17
-46
-68
-84
-97
-104
-109
-112
-114
-117
-121
-123
-126
-129
-133
-139
-142
-139
-133
-128
-125
-121
-118
-114
-108
-100
-89
-72
-61
-48
-27
-1
17
28
35
35
22
11
0
-8
-15
-25
-41
-70
-106
-125
-136
-143
-151
-159
-170
-180
-172
-148
-108
-85
-66
-51
-36
-16
7
23
33
38
36
32
30
28
26
24
23
23
24
25
26
26
28
32
32
19
1
-19
-35
-52
-71
-82
-87
-91
-82
-52
-18
1
14
23
32
41
51
62
63
55
46
37
37
44
52
59
44
30
20
11
4
-2
-30
-68
-86
-96
-104
-104
-94
-83
-71
-67
-63
-59
-60
-74
-95
-116
-145
-172
-181
-186
-186
-180
-171
-155
-133
-99
-67
-29
9
32
56
81
101
115
115
101
90
80
73
70
69
68
66
63
74
82
87
91
94
95
94
91
86
79
54
16
-2
-13
-22
-26
-22
-11
4
25
37
43
48
52
56
59
64
82
132
202
286
372
439
461
455
403
308
191
73
-20
-67
-72
-48
-1
25
33
19
-24
-73
-108
-125
-140
-154
-163
-170
-169
-156
-138
-114
-94
-70
-42
-26
-16
-20
-41
-61
-78
-90
-100
-107
-112
-116
-117
-115
-109
-102
-94
-81
-69
-57
-46
-35
-20
-1
6
9
12
14
15
17
19
21
23
25
28
31
34
37
44
58
72
90
113
125
132
138
142
145
145
142
138
134
129
125
120
115
109
103
97
92
87
81
75
69
63
58
53
47
41
33
25
16
9
5
2
-1
-4
-6
-8
-9
-9
-9
-10
-11
-12
-13
-14
-14
-15
-15
-15
-15
-14
-14
-13
-13
-13
-14
-16
-18
-19
-19
-16
-12
-6
3
17
3
-19
-45
-89
-133
-162
-181
-190
-197
-205
-212
-220
-238
-255
-262
-266
-249
-219
-195
-186
-181
-178
-175
-171
-167
-163
-154
-122
-74
-28
-8
0
2
5
8
12
18
23
26
30
34
39
42
43
42
38
32
24
16
4
-15
-30
-44
-59
-79
-94
-107
-116
-117
-110
-98
-84
-67
-55
-51
-48
-46
-44
-42
-41
-40
-39
-38
-35
-33
-31
-29
-28
-27
-24
-21
-17
-12
-6
6
14
12
10
8
5
2
1
1
5
10
16
26
40
48
54
54
44
33
19
0
-9
-16
-22
-26
-30
-31
-30
-26
-21
-15
-10
-6
0
8
13
16
18
20
24
29
19
9
2
-3
-4
2
10
16
22
27
30
29
24
17
10
4
-3
-11
-18
-25
-31
-38
-46
-52
-53
-49
-41
-32
-19
-4
4
10
14
18
21
23
23
22
21
19
17
13
9
0
-21
-39
-50
-56
-56
-48
-32
11
80
165
248
316
360
364
341
253
131
-2
-120
-176
-194
-185
-171
-173
-211
-261
-286
-281
-230
-151
-77
-52
-45
-42
-37
-32
-27
-19
-4
22
38
48
53
52
45
35
24
10
0
-13
-25
-34
-40
-45
-49
-48
-42
-33
-25
-18
-12
-5
1
6
10
14
17
20
23
26
29
32
36
39
43
46
50
53
56
60
64
66
67
66
62
58
54
50
47
42
36
31
28
27
28
30
33
37
41
49
50
43
22
-10
-47
-82
-102
-140
-174
-193
-213
-230
-241
-249
-248
-235
-199
-134
-66
-41
-33
-45
-86
-137
-165
-175
-175
-162
-128
-76
-27
-6
2
7
10
12
11
8
4
-1
-8
-17
-27
-39
-53
-68
-69
-69
-70
-70
-70
-64
-54
-38
-19
-14
-12
-10
-8
-6
-5
-3
0
1
3
5
8
11
16
28
48
61
70
60
43
25
11
1
-9
-25
-39
-47
-53
-52
-38
-17
5
22
41
64
78
85
90
77
35
-24
-91
-148
-164
-167
-169
-170
-173
-178
-187
-203
-209
-190
-149
-112
-79
-54
-45
-46
-59
-73
-86
-87
-74
-56
-34
-13
2
9
15
13
4
-1
-5
-9
-14
-19
-25
-34
-45
-51
-55
-59
-62
-63
-60
-54
-47
-42
-38
-33
-29
-25
-22
-18
-15
-9
0
8
19
33
49
65
84
97
103
108
100
86
67
44
27
19
14
11
12
19
28
36
45
51
52
48
41
31
15
2
-12
-32
-41
-43
-45
-46
-43
-37
-32
-29
-25
-21
-18
-14
-8
14
62
133
219
309
385
416
413
367
274
167
83
48
38
30
22
14
7
0
-6
-8
-8
-7
-6
-5
-4
-4
-4
-3
1
6
12
19
23
22
17
4
-18
-41
-63
-89
-107
-114
-114
-107
-96
-86
-83
-81
-80
-78
-76
-75
-73
-70
-65
-55
-43
-32
-24
-18
-18
-25
-34
-43
-49
-53
-47
-31
-7
14
21
24
25
23
22
20
19
17
18
21
26
36
45
49
52
53
50
42
29
16
1
-21
-43
-48
-54
-61
-69
-83
-100
-109
-114
-120
-125
-143
-166
-187
-199
-206
-210
-216
-224
-234
-245
-249
-251
-254
-255
-252
-247
-242
-238
-232
-222
-194
-147
-97
-55
-34
-27
-35
-49
-65
-76
-83
-88
-91
-95
-100
-100
-93
-73
-52
-29
-9
-4
-1
1
3
6
7
10
15
25
43
66
91
100
104
107
97
86
78
69
60
52
45
39
39
41
44
47
50
52
50
43
34
21
8
-4
-16
-24
-26
-28
-30
-29
-21
-9
5
16
25
31
38
48
59
72
82
87
93
100
107
114
114
110
100
79
67
57
49
40
32
26
23
24
27
30
34
23
15
9
5
0
-2
-6
-13
-23
-30
-28
-14
-5
-1
1
3
7
14
36
65
79
88
95
103
113
122
127
131
126
109
85
71
55
38
26
17
17
25
35
49
75
102
109
111
113
106
93
80
60
39
31
28
30
34
37
40
42
44
44
42
39
34
25
25
42
53
58
61
62
62
59
54
46
31
12
-2
-13
-25
-38
-49
-58
-63
-52
-20
37
113
204
290
323
316
242
132
22
-64
-116
-135
-135
-113
-76
-56
-51
-47
-42
-37
-19
4
12
7
-8
-38
-66
-82
-95
-104
-110
-116
-121
-116
-111
-106
-106
-108
-112
-108
-91
-81
-76
-74
-71
-66
-61
-54
-46
-45
-47
-52
-48
-33
-18
-5
3
4
-1
-7
-13
-17
-19
-22
-24
-16
-2
13
32
45
51
56
46
33
22
16
8
-5
-24
-38
-47
-52
-58
-65
-75
-84
-79
-62
-24
19
50
61
67
71
76
76
66
38
8
-21
-52
-72
-78
-78
-71
-66
-61
-57
-50
-42
-33
-22
-21
-29
-50
-82
-94
-105
-120
-137
-164
-190
-198
-203
-206
-208
-210
-211
-211
-213
-215
-216
-216
-213
-207
-188
-160
-127
-98
-72
-42
-10
7
18
24
30
36
42
48
53
58
64
71
78
82
87
91
94
97
97
97
94
90
85
78
65
39
24
16
11
6
3
1
-1
-5
-11
-15
-15
-10
-1
25
55
66
64
49
38
30
23
18
16
13
-1
-31
-41
-44
-46
-45
-36
-25
-15
-7
0
8
18
33
48
59
66
54
43
36
28
21
13
0
-14
-20
-25
-20
-14
-11
-8
-3
2
9
17
17
6
-8
-28
-48
-64
-72
-76
-79
-80
-80
-80
-79
-78
-76
-75
-79
-86
-95
-104
-106
-107
-109
-110
-107
-101
-95
-89
-80
-69
-52
-32
-21
-13
-5
2
14
36
50
57
63
66
69
69
69
67
66
64
63
61
60
59
57
57
57
59
61
65
71
85
95
102
107
107
102
94
85
72
63
58
52
49
49
54
60
65
68
71
74
78
82
86
91
96
101
107
114
119
123
129
141
156
177
213
261
317
378
437
487
529
544
531
492
371
213
51
-81
-145
-166
-151
-137
-129
-124
-119
-115
-111
-106
-103
-101
-98
-94
-89
-83
-78
-73
-67
-59
-52
-47
-45
-46
-48
-51
-54
-56
-59
-61
-64
-67
-70
-73
-75
-78
-81
-84
-88
-93
-97
-97
-93
-88
-82
-73
-60
-42
-20
-7
0
3
8
14
20
28
46
65
70
74
77
79
77
72
65
55
39
32
28
24
21
18
15
13
11
6
0
10
20
27
33
40
46
54
63
54
26
-28
-80
-120
-155
-193
-234
-248
-256
-252
-218
-177
-150
-133
-125
-119
-113
-107
-102
-95
-67
-26
11
36
54
65
71
71
67
61
42
-2
-42
-56
-60
-55
-44
-34
-23
-12
-1
3
8
13
17
20
22
21
19
15
11
6
1
-8
-14
-9
0
11
25
38
48
57
61
56
44
25
2
-15
-34
-54
-65
-69
-73
-75
-71
-63
-59
-55
-52
-50
-46
-43
-38
-34
-30
-26
-21
-14
-2
4
4
3
2
2
2
2
-1
-7
-13
-21
-28
-34
-53
-85
-104
-120
-131
-139
-145
-150
-152
-149
-140
-116
-80
-49
-39
-33
-29
-25
-18
-8
0
5
-1
-9
-16
-14
0
13
26
37
46
60
80
97
107
98
83
64
49
37
29
23
17
18
30
61
84
92
92
82
71
59
51
30
1
-13
-23
-30
-29
-21
-12
-1
10
25
48
75
92
101
107
97
82
61
39
16
-8
-26
-34
-40
-43
-43
-38
-31
-23
-12
-1
6
12
17
20
21
23
27
31
21
5
-14
-36
-55
-68
-77
-76
-62
-24
43
131
223
304
329
318
234
100
-47
-177
-245
-252
-221
-155
-104
-66
-44
-26
-13
-9
-4
0
-8
-16
-23
-26
-22
-12
0
12
20
23
24
26
28
30
32
33
34
34
35
35
34
33
32
30
28
27
26
24
22
19
15
8
2
1
4
10
19
33
41
46
50
51
49
45
40
30
17
8
2
14
33
49
56
59
62
62
62
61
60
58
57
56
56
56
56
55
54
53
51
50
48
46
44
42
41
39
36
26
4
-16
-30
-35
-37
-40
-43
-45
-46
-47
-47
-46
-46
-44
-42
-39
-35
-31
-28
-24
-17
-11
-11
-17
-25
-39
-59
-69
-75
-79
-81
-81
-78
-72
-65
-54
-39
-26
-10
9
25
37
44
50
56
56
44
11
-32
-69
-82
-73
-46
-18
-9
-25
-53
-69
-74
-77
-64
-47
-33
-25
-19
-14
-12
-18
-28
-37
-47
-56
-63
-69
-75
-79
-78
-69
-58
-48
-39
-30
-23
-17
-12
-5
3
8
2
-8
-20
-32
-43
-53
-64
-76
-82
-88
-93
-77
-61
-50
-40
-32
-25
-18
-11
-5
-1
2
5
8
11
12
12
8
1
-7
-22
-44
-72
-110
-154
-196
-222
-250
-267
-273
-278
-277
-265
-233
-196
-162
-150
-147
-145
-143
-140
-136
-131
-123
-109
-83
-53
-22
8
20
28
33
24
13
3
0
-3
-5
-7
-3
4
15
31
39
42
44
45
47
48
50
51
53
55
56
57
58
60
63
66
84
114
152
194
238
296
367
439
475
472
418
303
157
2
-125
-177
-176
-120
-48
-13
0
0
-3
-6
-10
-11
-7
4
36
72
89
95
93
83
72
60
52
42
31
22
23
39
51
56
60
63
65
65
63
59
56
53
51
48
45
42
39
37
34
31
23
10
0
-14
-39
-58
-65
-65
-56
-32
-7
13
28
44
62
84
101
115
127
145
169
199
231
251
259
259
250
224
180
118
51
0
-19
-19
1
42
74
84
79
64
36
22
11
5
10
26
58
87
112
126
131
131
121
96
67
48
42
37
32
28
22
15
14
19
24
30
30
25
18
12
18
26
32
21
7
-4
-5
-3
-1
0
2
4
8
19
37
44
44
37
17
-6
-36
-68
-101
-133
-152
-159
-162
-160
-156
-143
-119
-101
-95
-108
-121
-131
-137
-139
-141
-145
-148
-142
-122
-90
-57
-24
1
22
48
73
88
99
108
120
130
138
142
138
129
115
99
78
59
51
47
37
14
-13
-41
-51
-51
-45
-36
-25
-7
25
63
103
138
166
177
185
184
163
131
91
56
34
25
25
30
46
73
86
93
98
100
100
97
92
86
78
71
64
56
48
38
24
11
-1
-9
-12
-15
-18
-22
-25
-30
-52
-82
-114
-141
-154
-163
-173
-180
-185
-179
-174
-169
-167
-168
-172
-177
-181
-170
-156
-143
-136
-129
-115
-84
-54
-29
-5
18
32
56
82
99
105
98
91
87
84
82
81
81
81
81
80
79
80
85
90
95
101
109
124
135
140
138
113
92
85
81
79
79
81
86
92
102
117
138
159
193
251
335
433
519
558
554
492
373
225
88
-13
-56
-61
-41
-17
-4
14
38
73
111
127
133
133
126
114
100
90
82
75
66
54
41
26
12
3
-2
-10
-19
-25
-30
-30
-24
-18
-12
-6
0
5
8
11
14
18
21
24
29
39
53
59
64
65
61
53
40
23
5
-4
-7
-10
-3
18
40
63
87
115
129
137
143
146
143
135
123
106
90
74
47
19
-10
-39
-56
-70
-80
-84
-88
-91
-86
-71
-50
-43
-39
-38
-39
-44
-50
-61
-78
-95
-105
-109
-112
-104
-94
-84
-75
-50
-20
7
24
36
45
51
55
62
69
73
76
72
69
68
67
66
64
61
57
52
43
28
6
-23
-61
-98
-133
-164
-174
-178
-181
-172
-146
-120
-94
-80
-74
-72
-70
-69
-67
-65
-63
-62
-59
-56
-51
-32
-5
20
32
38
42
44
46
46
44
40
37
34
32
29
27
25
25
25
26
27
29
31
34
41
54
60
63
65
67
68
68
66
63
59
54
48
39
32
27
21
15
12
11
10
9
7
6
6
6
7
8
9
9
10
10
12
14
19
24
37
40
25
-7
-44
-57
-62
-61
-51
-40
-29
-18
7
51
80
90
91
85
67
42
15
-4
-8
-11
-13
-15
-17
-19
-20
-22
-23
-26
-40
-60
-81
-103
-126
-152
-178
-201
-214
-222
-227
-229
-228
-224
-215
-181
-146
-117
-94
-79
-51
-23
-1
13
24
30
36
41
48
60
73
82
94
110
120
125
127
129
130
128
124
119
110
94
80
70
63
53
41
31
24
24
31
51
72
78
82
86
89
93
108
139
188
258
343
425
468
467
421
330
210
86
-12
-87
-137
-151
-148
-113
-61
-24
-12
-22
-35
-45
-38
-19
21
60
76
82
82
73
64
54
47
43
41
39
37
36
35
34
34
35
36
37
39
41
44
48
55
62
68
74
76
78
81
84
84
77
70
65
60
57
53
40
17
-10
-37
-56
-70
-80
-81
-75
-67
-55
-42
-30
-22
-17
-13
-10
-6
-3
1
5
11
28
53
80
97
104
106
103
96
88
78
69
57
44
36
31
41
52
61
61
53
41
21
6
-2
-9
-15
-21
-27
-35
-42
-48
-67
-95
-130
-155
-164
-163
-150
-131
-108
-88
-66
-50
-39
-35
-38
-45
-50
-56
-59
-55
-47
-33
-14
5
25
42
54
61
66
71
74
74
68
59
41
24
18
14
8
1
-5
-12
-13
-11
-9
-6
-11
-19
-24
-12
8
17
17
18
18
19
17
12
6
-3
-16
-19
-20
-22
-23
-24
-25
-25
-27
-28
-30
-32
-33
-35
-38
-45
-62
-91
-119
-149
-177
-186
-192
-198
-202
-208
-215
-221
-227
-233
-239
-242
-238
-229
-216
-200
-174
-140
-104
-71
-42
-23
0
15
27
25
-10
-64
-120
-148
-157
-148
-131
-118
-112
-108
-109
-118
-127
-137
-148
-163
-181
-194
-203
-204
-198
-182
-154
-138
-112
-82
-42
-5
22
38
49
58
68
84
96
100
104
103
94
84
74
69
66
62
59
64
74
85
97
102
103
105
107
96
87
82
77
74
73
74
74
75
75
76
75
65
50
41
39
38
39
47
69
100
147
205
275
354
431
497
533
531
485
390
278
170
84
33
17
25
48
89
123
140
149
156
160
162
160
155
150
146
143
141
138
135
132
128
126
123
120
116
110
88
51
26
5
-8
-14
-16
-18
-21
-23
-25
-25
-24
-23
-23
-23
-23
-23
-23
-23
-22
-22
-22
-23
-24
-24
-24
-24
-24
-24
-23
-21
-19
-17
-15
-12
-8
1
22
39
58
70
77
82
84
84
81
76
58
16
-6
-25
-44
-58
-67
-71
-73
-77
-74
-49
-14
12
22
31
40
49
52
54
57
59
56
50
46
44
41
39
37
34
31
29
26
22
13
-2
-17
-30
-38
-43
-45
-43
-39
-36
-31
-29
-30
-35
-43
-57
-72
-82
-88
-92
-79
-64
-52
-52
-62
-72
-82
-84
-81
-79
-77
-75
-70
-64
-53
-43
-38
-41
-66
-85
-92
-80
-68
-58
-49
-43
-32
-17
-6
1
0
-8
-18
-28
-28
-20
-14
-10
-6
-1
2
6
9
13
17
20
21
20
17
13
7
-4
-22
-31
-38
-41
-38
-31
-18
-5
0
4
6
2
-6
-18
-40
-67
-82
-89
-86
-69
-53
-41
-34
-25
-15
-8
-3
0
4
6
6
6
4
2
0
-6
-17
-28
-36
-36
-27
-14
1
11
16
21
26
32
44
47
28
6
0
-4
-6
-6
-5
-2
1
14
43
72
83
89
94
85
71
51
26
3
-11
-22
-28
-33
-36
-39
-42
-46
-51
-57
-63
-71
-75
-71
-62
-48
-28
-11
6
24
42
76
127
196
279
367
431
441
429
351
242
130
35
-24
-51
-61
-62
-57
-42
-1
48
74
82
75
53
23
-8
-21
-30
-35
-26
-10
3
11
16
20
22
24
24
24
25
25
26
28
29
30
31
32
34
35
37
39
41
47
51
47
39
31
22
15
9
4
-1
-4
-1
7
32
60
69
73
75
77
78
79
78
74
69
62
54
63
78
86
88
81
46
14
4
-2
-7
-11
-17
-23
-22
-11
6
20
24
25
28
34
42
56
76
89
97
101
99
90
65
23
-31
-98
-165
-219
-237
-229
-206
-141
-74
-42
-34
-26
-17
-4
37
72
85
84
66
53
45
37
31
26
23
19
14
9
3
-2
-6
-9
-10
-13
-19
-35
-49
-58
-63
-59
-50
-39
-26
-16
-4
10
21
29
29
20
12
4
0
4
13
19
25
30
32
29
23
14
0
-22
-44
-60
-69
-75
-82
-92
-104
-117
-130
-160
-192
-225
-242
-252
-258
-261
-262
-259
-253
-234
-203
-174
-165
-159
-154
-149
-133
-102
-76
-59
-41
-26
-2
24
57
76
83
83
76
70
63
58
52
48
45
43
40
38
36
34
32
27
21
31
42
49
57
64
74
84
86
89
87
71
48
28
23
19
16
14
14
14
15
15
16
16
18
20
15
8
2
8
17
24
16
8
1
2
13
22
29
36
41
45
60
86
103
109
99
81
64
53
44
34
19
10
7
6
11
15
19
21
23
23
20
16
11
5
-2
-4
0
5
10
10
0
-9
-19
-28
-35
-43
-52
-51
-39
-6
45
117
211
321
433
502
505
455
339
193
57
-43
-77
-88
-94
-96
-95
-91
-84
-59
-30
-21
-17
-21
-33
-40
-40
-32
-27
-22
-18
-15
-15
-16
-18
-21
-30
-57
-78
-85
-75
-65
-56
-56
-67
-95
-112
-118
-110
-102
-98
-92
-86
-78
-49
-12
21
48
60
63
65
67
67
67
65
62
59
55
49
45
45
48
54
61
71
79
86
91
95
95
92
86
77
62
50
42
42
51
76
109
126
132
135
134
127
116
99
75
40
10
0
-8
-18
-30
-37
-42
-45
-40
-29
-19
-7
3
14
20
25
29
32
35
37
38
38
39
40
41
43
45
47
49
52
56
60
66
74
84
98
113
103
89
70
54
41
26
7
-14
-26
-32
-37
-40
-42
-40
-38
-34
-30
-27
-22
-18
-16
-17
-22
-30
-43
-65
-87
-106
-120
-129
-131
-125
-109
-77
-36
4
34
44
35
9
-26
-40
-40
-27
-12
1
5
8
10
8
-4
-11
-16
-20
-23
-24
-24
-22
-20
-16
-12
-8
-3
0
3
2
0
-5
-14
-30
-45
-56
-64
-68
-72
-74
-76
-77
-78
-79
-79
-77
-75
-72
-68
-63
-57
-44
-36
-30
-27
-25
-24
-22
-21
-18
-15
-12
-9
-7
-4
0
3
6
7
6
4
1
-1
-7
-21
-37
-54
-64
-71
-75
-76
-72
-66
-56
-36
-11
9
23
32
36
32
22
11
-2
-19
-29
-35
-40
-45
-49
-52
-54
-55
-57
-59
-64
-79
-99
-111
-116
-121
-125
-124
-114
-88
-57
-20
4
23
36
42
38
27
11
-8
-20
-28
-31
-30
-27
-26
-25
-24
-23
-23
-25
-26
-28
-35
-34
-8
36
93
157
224
290
342
359
337
270
132
-23
-157
-231
-255
-248
-226
-188
-149
-112
-87
-57
-28
-11
0
6
7
1
-6
-16
-30
-41
-48
-53
-57
-60
-60
-59
-55
-50
-41
-20
-8
-2
1
5
7
10
12
14
15
16
17
19
21
24
27
29
26
22
18
14
9
5
3
5
9
15
24
43
55
61
66
70
72
72
69
63
56
44
29
21
16
28
38
44
50
58
67
75
81
87
93
99
102
102
99
95
90
85
76
60
46
37
32
28
26
23
19
15
11
7
3
0
-5
-9
-10
-9
-7
-3
1
6
13
16
12
3
-6
-17
-17
-8
-3
0
3
5
7
8
7
6
4
1
0
-2
-5
-9
-16
-23
-28
-33
-36
-39
-42
-46
-51
-56
-61
-67
-72
-78
-84
-88
-90
-88
-83
-77
-70
-57
-34
-19
-11
-2
5
13
29
45
52
57
55
40
26
13
1
-10
-21
-32
-38
-33
-22
-4
19
43
65
78
87
91
86
74
57
29
7
-9
-21
-32
-43
-57
-90
-132
-173
-188
-188
-171
-128
-80
-33
1
11
17
22
25
28
34
41
40
29
20
11
7
12
21
27
31
35
38
40
41
43
43
44
43
42
38
33
26
18
-14
-54
-79
-108
-134
-153
-166
-176
-184
-191
-195
-190
-179
-169
-157
-147
-138
-127
-113
-99
-86
-76
-66
-56
-40
-14
0
7
11
15
18
22
25
28
31
35
45
66
105
153
211
278
347
395
411
398
355
264
146
33
-34
-55
-61
-63
-65
-68
-72
-80
-90
-100
-109
-120
-131
-137
-137
-131
-123
-113
-100
-81
-65
-48
-31
-12
14
39
47
52
56
60
62
65
67
68
70
71
71
72
72
72
73
74
75
77
79
81
82
84
85
85
84
83
82
80
79
79
79
79
79
80
79
77
76
76
82
89
93
97
101
105
107
107
104
99
93
86
80
73
66
60
55
51
47
44
41
38
35
32
30
27
24
22
18
14
11
15
21
25
29
32
35
34
31
26
18
5
-20
-41
-53
-61
-66
-70
-74
-79
-81
-76
-64
-55
-46
-38
-35
-33
-32
-30
-28
-29
-34
-39
-45
-44
-35
-29
-23
-19
-17
-16
-18
-21
-24
-27
-31
-35
-41
-48
-60
-95
-144
-186
-199
-192
-168
-120
-65
-10
12
19
9
-6
-27
-46
-60
-74
-85
-94
-100
-101
-99
-96
-94
-92
-91
-89
-87
-86
-84
-82
-80
-78
-75
-73
-70
-65
-61
-59
-59
-61
-63
-65
-69
-71
-67
-59
-47
-26
-1
19
34
43
33
17
-2
-18
-31
-42
-51
-59
-62
-58
-50
-42
-33
-32
-38
-45
-51
-51
-44
-39
-35
-33
-31
-31
-33
-38
-46
-56
-76
-106
-122
-132
-138
-138
-133
-124
-113
-99
-90
-69
-37
-12
3
15
22
27
29
30
30
31
32
24
16
9
2
-4
-16
-34
-52
-63
-68
-73
-73
-66
-57
-44
-29
-11
0
6
11
14
17
19
21
25
30
22
8
-2
-8
-12
-5
16
49
92
136
176
201
202
181
121
33
-68
-168
-246
-285
-287
-260
-198
-127
-65
-20
5
19
40
66
95
106
106
100
94
89
85
80
75
57
21
-15
-47
-74
-87
-95
-100
-99
-90
-80
-70
-62
-54
-42
-29
-15
-8
-5
-3
-1
0
1
3
5
7
9
12
15
24
40
55
71
81
85
88
91
95
98
100
104
109
122
138
155
172
189
207
218
220
223
224
225
225
224
224
223
223
222
222
221
218
215
210
201
183
162
144
127
113
99
83
64
45
11
-20
-57
-99
-142
-183
-219
-259
-301
-341
-367
-376
-380
-379
-375
-368
-344
-285
-206
-129
-61
-12
2
7
11
-3
-17
-28
-35
-35
-33
-29
-26
-24
-23
-22
-20
-16
-11
-6
1
13
14
5
-7
-24
-41
-60
-81
-92
-97
-100
-87
-75
-68
-63
-57
-51
-45
-41
-36
-30
-26
-26
-28
-33
-39
-47
-58
-60
-63
-66
-65
-57
-50
-44
-39
-39
-43
-49
-56
-64
-63
-52
-35
-15
0
10
18
26
33
33
24
1
-31
-56
-64
-69
-72
-73
-73
-72
-71
-69
-66
-61
-61
-68
-73
-79
-81
-78
-70
-58
-39
-16
-3
1
5
-3
-17
-35
-55
-73
-84
-93
-94
-88
-73
-47
-20
-4
6
13
15
11
2
-7
-18
-26
-37
-51
-61
-68
-72
-72
-67
-59
-51
-41
-35
-32
-27
-23
-31
-42
-51
-60
-83
-107
-119
-127
-132
-134
-130
-122
-109
-91
-73
-56
-39
-25
-4
22
28
29
30
30
30
27
24
18
5
-11
-29
-46
-63
-80
-92
-99
-104
-94
-83
-73
-64
-53
-42
-35
-31
-40
-68
-105
-146
-186
-220
-232
-237
-241
-233
-208
-166
-110
-38
48
141
229
298
339
342
310
220
88
-58
-184
-262
-280
-276
-239
-200
-188
-198
-225
-274
-300
-301
-283
-253
-222
-206
-195
-187
-179
-167
-150
-131
-110
-85
-71
-66
-62
-62
-65
-68
-70
-71
-69
-64
-57
-45
-30
-15
-3
3
8
11
14
20
31
45
56
64
69
60
50
43
38
38
41
47
56
72
81
86
90
93
96
99
101
105
109
115
123
134
148
154
157
160
161
162
161
160
157
152
139
115
109
103
97
91
86
80
75
75
78
81
84
86
89
90
90
89
87
83
77
67
48
16
-12
-21
-27
-30
-31
-30
-26
-22
-15
-4
12
19
23
26
28
30
30
30
29
27
24
20
16
10
0
-4
-5
-6
-8
-10
-10
-9
-4
1
9
21
34
44
53
59
60
57
50
39
21
