0.036551
0.028442
0.028442
0.024388
0.016279
0.008170
0.000062
0.012225
0.008170
0.000062
0.004116
0.004116
-0.036428
-0.133734
-0.417541
-0.701349
-0.883797
-0.867579
-0.664860
-0.437813
-0.239148
-0.117516
-0.020210
0.024388
0.048714
0.064932
0.068986
0.056823
0.052769
0.056823
0.064932
0.073041
0.077095
0.064932
0.068986
0.077095
0.081150
0.085204
0.085204
0.085204
0.093313
0.101422
0.113585
0.113585
0.121693
0.129802
0.121693
0.133857
0.141965
0.137911
0.146020
0.158183
0.166292
0.158183
0.158183
0.150074
0.146020
0.133857
0.121693
0.093313
0.068986
0.056823
0.032497
0.028442
0.016279
0.012225
0.008170
0.008170
0.004116
-0.003993
-0.008047
-0.012102
-0.020210
-0.020210
-0.020210
-0.016156
-0.024265
-0.028319
-0.024265
-0.016156
-0.008047
0.004116
0.012225
0.020334
0.016279
0.024388
0.024388
0.020334
0.020334
0.024388
0.016279
0.016279
0.008170
0.004116
0.004116
0.004116
-0.008047
-0.020210
-0.008047
-0.012102
0.000062
0.000062
0.008170
0.012225
0.012225
0.004116
0.000062
0.012225
0.000062
0.004116
-0.003993
-0.003993
-0.008047
-0.003993
-0.008047
-0.012102
-0.008047
-0.003993
-0.008047
0.000062
0.008170
0.004116
0.004116
0.012225
0.020334
0.016279
0.020334
0.012225
0.004116
0.008170
0.004116
0.004116
-0.003993
-0.008047
-0.003993
0.004116
0.000062
0.004116
0.016279
0.012225
0.012225
0.020334
0.016279
0.024388
0.024388
0.020334
0.020334
0.016279
0.020334
0.008170
0.012225
-0.003993
0.004116
0.008170
0.012225
0.024388
0.032497
0.028442
0.020334
0.024388
0.020334
0.028442
0.036551
0.024388
0.016279
0.012225
0.016279
0.008170
0.008170
0.012225
0.020334
0.028442
0.032497
0.032497
0.032497
0.028442
0.020334
0.020334
0.024388
0.020334
0.020334
0.020334
0.016279
0.004116
0.008170
0.020334
0.016279
0.016279
0.016279
0.028442
0.020334
0.020334
0.024388
0.024388
0.024388
0.020334
-0.048591
-0.263474
-0.591880
-0.851362
-0.952722
-0.810818
-0.595935
-0.360780
-0.214821
-0.085081
-0.008047
0.020334
0.020334
0.040606
0.056823
0.060878
0.073041
0.089258
0.089258
0.089258
0.085204
0.081150
0.073041
0.077095
0.081150
0.068986
0.077095
0.077095
0.073041
0.068986
0.081150
0.097367
0.093313
0.101422
0.113585
0.129802
0.141965
0.162237
0.166292
0.166292
0.170346
0.162237
0.158183
0.146020
0.129802
0.113585
0.093313
0.081150
0.073041
0.056823
0.044660
0.024388
0.016279
0.016279
0.016279
0.012225
0.012225
0.016279
0.016279
0.008170
0.008170
0.004116
-0.003993
-0.008047
-0.008047
0.008170
0.004116
0.008170
0.012225
0.016279
0.024388
0.028442
0.028442
0.032497
0.040606
0.032497
0.028442
0.020334
0.016279
0.016279
0.016279
0.016279
0.020334
0.028442
0.024388
0.028442
0.016279
0.016279
0.020334
0.016279
0.020334
0.008170
-0.008047
-0.012102
-0.003993
-0.003993
-0.003993
-0.012102
-0.003993
-0.020210
-0.003993
-0.008047
-0.012102
-0.003993
-0.003993
-0.003993
0.000062
-0.012102
-0.020210
-0.020210
-0.024265
-0.028319
-0.028319
-0.024265
-0.020210
-0.024265
-0.012102
-0.012102
-0.008047
-0.008047
-0.012102
-0.008047
-0.012102
-0.016156
-0.020210
-0.020210
-0.020210
-0.012102
-0.012102
-0.036428
-0.085081
-0.259420
-0.518901
-0.754056
-0.818927
-0.705404
-0.506738
-0.316181
-0.186441
-0.072918
-0.012102
0.020334
0.024388
0.032497
0.040606
0.036551
0.048714
0.036551
0.040606
0.048714
0.052769
0.044660
0.056823
0.060878
0.068986
0.064932
0.073041
0.089258
0.089258
0.101422
0.097367
0.101422
0.109530
0.125748
0.133857
0.141965
0.137911
0.133857
0.146020
0.162237
0.166292
0.162237
0.162237
0.158183
0.162237
0.154129
0.141965
0.109530
0.089258
0.060878
0.036551
0.024388
0.020334
0.020334
0.012225
0.012225
0.012225
0.004116
0.000062
0.012225
0.008170
0.020334
0.028442
0.036551
0.040606
0.040606
0.048714
0.040606
0.060878
0.048714
0.048714
0.044660
0.040606
0.044660
0.036551
0.024388
0.028442
0.020334
0.020334
0.024388
0.012225
0.016279
0.020334
0.024388
0.032497
0.044660
0.040606
0.028442
0.024388
0.024388
0.012225
0.016279
0.020334
0.016279
0.008170
0.004116
0.000062
0.004116
0.012225
0.008170
0.016279
0.016279
0.012225
0.008170
0.004116
0.004116
-0.003993
-0.003993
-0.003993
0.004116
0.004116
0.012225
0.016279
0.008170
0.000062
0.000062
0.000062
0.004116
0.016279
0.008170
0.016279
0.020334
0.016279
0.008170
0.008170
0.000062
0.004116
0.004116
0.008170
0.008170
0.020334
0.012225
-0.048591
-0.202658
-0.518901
-0.794600
-0.936504
-0.831090
-0.608098
-0.381052
-0.214821
-0.093190
-0.003993
0.036551
0.052769
0.068986
0.064932
0.064932
0.068986
0.077095
0.085204
0.085204
0.085204
0.081150
0.068986
0.068986
0.081150
0.081150
0.085204
0.093313
0.093313
0.085204
0.093313
0.097367
0.105476
0.125748
0.125748
0.137911
0.150074
0.174401
0.170346
0.162237
0.154129
0.158183
0.158183
0.154129
0.141965
0.133857
0.105476
0.077095
0.060878
0.044660
0.040606
0.032497
0.020334
0.012225
0.020334
-0.003993
-0.008047
-0.008047
-0.016156
-0.016156
-0.028319
-0.028319
-0.012102
-0.016156
-0.008047
0.000062
0.004116
0.008170
0.012225
0.024388
0.028442
0.032497
0.036551
0.028442
0.036551
0.036551
0.036551
0.036551
0.032497
0.028442
0.028442
0.020334
0.016279
0.020334
0.024388
0.024388
0.020334
0.000062
-0.008047
-0.016156
-0.012102
-0.020210
-0.008047
0.000062
0.008170
0.008170
0.008170
0.000062
0.012225
0.008170
0.020334
0.016279
0.008170
0.000062
-0.003993
0.000062
0.000062
0.004116
-0.008047
-0.012102
-0.016156
-0.016156
-0.016156
-0.012102
-0.008047
0.004116
-0.003993
-0.008047
-0.003993
-0.003993
-0.003993
-0.012102
-0.008047
0.000062
0.000062
0.004116
0.012225
0.016279
0.000062
0.008170
-0.003993
-0.003993
-0.012102
-0.012102
-0.008047
-0.016156
0.000062
-0.008047
-0.012102
-0.016156
-0.072918
-0.206713
-0.478357
-0.725676
-0.855416
-0.782437
-0.599989
-0.372943
-0.210767
-0.097244
0.000062
0.024388
0.040606
0.056823
0.056823
0.064932
0.052769
0.060878
0.056823
0.052769
0.056823
0.048714
0.044660
0.048714
0.064932
0.056823
0.056823
0.060878
0.064932
0.060878
0.073041
0.077095
0.089258
0.097367
0.109530
0.105476
0.117639
0.121693
0.125748
0.129802
0.133857
0.137911
0.150074
0.137911
0.129802
0.117639
0.097367
0.077095
0.060878
0.040606
0.032497
0.028442
0.020334
0.008170
0.004116
0.004116
0.004116
0.000062
-0.003993
0.000062
0.004116
0.000062
-0.003993
0.000062
-0.003993
0.000062
-0.003993
0.000062
0.008170
0.016279
0.012225
0.000062
-0.008047
-0.003993
-0.012102
0.004116
-0.003993
-0.008047
0.004116
0.000062
0.008170
0.016279
0.012225
0.008170
0.004116
0.004116
0.008170
0.004116
0.004116
0.004116
0.000062
-0.003993
-0.008047
-0.016156
-0.016156
-0.016156
-0.016156
-0.016156
-0.008047
0.000062
-0.003993
0.004116
0.000062
0.000062
-0.003993
0.004116
0.012225
0.024388
0.012225
0.004116
0.000062
0.000062
-0.003993
-0.008047
-0.012102
-0.012102
-0.003993
-0.003993
-0.056700
-0.166169
-0.441868
-0.713512
-0.855416
-0.806764
-0.608098
-0.376997
-0.210767
-0.109407
-0.016156
0.024388
0.036551
0.052769
0.056823
0.068986
0.068986
0.085204
0.073041
0.068986
0.068986
0.068986
0.068986
0.056823
0.060878
0.068986
0.060878
0.073041
0.077095
0.081150
0.085204
0.089258
0.105476
0.117639
0.117639
0.113585
0.125748
0.141965
0.146020
0.170346
0.170346
0.174401
0.178455
0.174401
0.162237
0.146020
0.121693
0.093313
0.085204
0.064932
0.052769
0.040606
0.024388
0.012225
-0.003993
-0.008047
-0.008047
0.004116
0.000062
0.000062
0.008170
0.008170
0.004116
0.008170
0.016279
0.016279
0.032497
0.044660
0.052769
0.052769
0.048714
0.032497
0.024388
0.032497
0.032497
0.020334
0.016279
0.024388
0.024388
0.028442
0.020334
0.024388
0.028442
0.024388
0.032497
0.032497
0.044660
0.044660
0.032497
0.028442
0.024388
0.016279
0.028442
0.024388
0.020334
0.020334
0.024388
0.024388
0.032497
0.020334
0.020334
0.012225
0.012225
0.016279
0.012225
0.008170
0.008170
0.004116
0.008170
0.004116
0.012225
0.016279
0.016279
0.020334
0.028442
0.032497
0.032497
0.032497
0.028442
0.036551
0.032497
0.012225
0.004116
0.008170
0.000062
0.000062
0.004116
0.008170
0.000062
0.004116
0.016279
0.016279
-0.008047
-0.072918
-0.340508
-0.652696
-0.863525
-0.916232
-0.733784
-0.510792
-0.291855
-0.166169
-0.048591
0.012225
0.032497
0.040606
0.052769
0.073041
0.068986
0.064932
0.064932
0.064932
0.073041
0.077095
0.081150
0.097367
0.097367
0.085204
0.068986
0.077095
0.093313
0.085204
0.085204
0.093313
0.093313
0.097367
0.105476
0.121693
0.137911
0.146020
0.166292
0.178455
0.178455
0.194673
0.194673
0.194673
0.194673
0.166292
0.150074
0.121693
0.089258
0.064932
0.036551
0.024388
0.012225
0.012225
0.004116
-0.012102
-0.008047
-0.012102
-0.032374
-0.028319
-0.024265
-0.012102
-0.003993
0.004116
0.012225
0.020334
0.024388
0.020334
0.024388
0.032497
0.028442
0.036551
0.032497
0.040606
0.040606
0.040606
0.028442
0.016279
0.012225
0.016279
0.016279
0.020334
0.024388
0.016279
0.020334
0.028442
0.016279
0.020334
0.032497
0.028442
0.024388
0.024388
0.028442
0.020334
0.024388
0.028442
0.020334
-0.003993
-0.012102
-0.012102
-0.012102
-0.012102
-0.008047
-0.008047
-0.003993
0.000062
0.008170
0.008170
0.008170
0.004116
0.020334
0.008170
0.008170
0.020334
0.020334
0.020334
-0.003993
-0.016156
-0.012102
-0.028319
-0.028319
-0.028319
-0.003993
-0.016156
-0.008047
0.000062
-0.003993
0.004116
0.016279
0.016279
0.008170
0.020334
0.008170
-0.008047
-0.008047
-0.012102
-0.040482
-0.089135
-0.271583
-0.567554
-0.798655
-0.863525
-0.745948
-0.539173
-0.316181
-0.182386
-0.056700
0.000062
0.036551
0.048714
0.060878
0.068986
0.048714
0.040606
0.036551
0.032497
0.044660
0.048714
0.044660
0.056823
0.056823
0.052769
0.048714
0.052769
0.056823
0.052769
0.060878
0.073041
0.089258
0.089258
0.089258
0.085204
0.089258
0.101422
0.105476
0.109530
0.121693
0.129802
0.129802
0.129802
0.129802
0.125748
0.113585
0.101422
0.081150
0.056823
0.028442
0.008170
-0.008047
-0.016156
-0.020210
-0.020210
-0.012102
-0.028319
-0.028319
-0.020210
-0.020210
-0.024265
-0.020210
-0.016156
-0.003993
0.000062
-0.008047
-0.008047
-0.012102
-0.012102
-0.012102
-0.003993
-0.003993
0.000062
0.012225
0.020334
0.016279
0.012225
0.020334
0.020334
0.012225
0.004116
-0.008047
-0.016156
-0.016156
-0.016156
-0.024265
-0.024265
-0.028319
-0.016156
-0.012102
-0.024265
-0.003993
-0.003993
-0.008047
-0.016156
-0.016156
-0.008047
-0.003993
-0.008047
-0.003993
0.000062
0.008170
0.016279
0.012225
0.012225
0.012225
0.016279
0.016279
0.008170
0.000062
0.000062
0.000062
-0.003993
0.004116
0.008170
0.004116
0.012225
0.004116
0.004116
0.012225
0.004116
0.016279
0.012225
0.016279
0.020334
0.024388
0.024388
0.028442
0.024388
0.012225
0.012225
0.016279
0.016279
0.012225
0.008170
0.012225
0.012225
0.012225
0.020334
0.028442
0.020334
0.028442
0.028442
0.036551
0.028442
0.020334
0.016279
0.012225
0.012225
0.016279
0.008170
0.016279
0.012225
0.024388
0.024388
0.028442
0.024388
0.016279
0.012225
0.016279
0.008170
0.008170
0.016279
0.020334
0.020334
0.020334
0.016279
0.020334
0.016279
0.024388
0.016279
0.016279
-0.012102
-0.064809
-0.291855
-0.616207
-0.847307
-0.936504
-0.786492
-0.551336
-0.312127
-0.174278
-0.056700
0.016279
0.036551
0.048714
0.044660
0.052769
0.060878
0.060878
0.064932
0.056823
0.060878
0.073041
0.073041
0.081150
0.089258
0.093313
0.089258
0.089258
0.089258
0.105476
0.093313
0.101422
0.109530
0.109530
0.113585
0.125748
0.133857
0.146020
0.158183
0.174401
0.174401
0.178455
0.186564
0.186564
0.186564
0.178455
0.162237
0.137911
0.105476
0.085204
0.073041
0.060878
0.044660
0.032497
0.024388
0.016279
0.000062
0.008170
-0.008047
-0.008047
-0.008047
0.000062
-0.003993
-0.003993
0.004116
0.000062
0.012225
0.016279
0.028442
0.036551
0.032497
0.020334
0.020334
0.024388
0.024388
0.032497
0.032497
0.032497
0.028442
0.028442
0.024388
0.032497
0.024388
0.032497
0.028442
0.028442
0.024388
0.016279
0.012225
0.020334
0.020334
0.020334
0.016279
0.016279
0.012225
0.012225
0.012225
0.020334
0.020334
0.012225
0.000062
-0.003993
-0.003993
0.004116
0.008170
0.012225
0.016279
0.016279
0.016279
0.016279
0.004116
0.004116
0.004116
0.016279
0.016279
-0.048591
-0.210767
-0.522956
-0.778383
-0.908123
-0.818927
-0.604044
-0.376997
-0.206713
-0.101298
-0.012102
0.024388
0.032497
0.040606
0.052769
0.060878
0.064932
0.073041
0.077095
0.081150
0.085204
0.081150
0.081150
0.085204
0.089258
0.073041
0.073041
0.085204
0.093313
0.089258
0.093313
0.101422
0.105476
0.121693
0.117639
0.141965
0.141965
0.158183
0.170346
0.182509
0.178455
0.178455
0.174401
0.166292
0.150074
0.133857
0.113585
0.093313
0.073041
0.044660
0.028442
0.024388
0.008170
0.008170
0.008170
0.000062
0.000062
0.004116
0.008170
0.004116
0.008170
0.008170
0.004116
0.000062
0.004116
0.000062
0.004116
0.012225
0.020334
0.020334
0.028442
0.044660
0.040606
0.044660
0.028442
0.028442
0.024388
0.020334
0.024388
0.024388
0.016279
0.012225
0.012225
0.012225
0.020334
0.012225
0.016279
0.004116
-0.003993
0.004116
0.008170
-0.003993
0.008170
0.008170
0.020334
0.012225
0.008170
0.016279
0.016279
0.012225
0.012225
0.004116
0.004116
-0.003993
0.004116
0.000062
-0.003993
-0.003993
-0.012102
0.008170
-0.028319
-0.072918
-0.231039
-0.506738
-0.750002
-0.839199
-0.745948
-0.551336
-0.324290
-0.190495
-0.089135
-0.012102
0.000062
0.000062
0.012225
0.036551
0.032497
0.036551
0.044660
0.048714
0.044660
0.052769
0.060878
0.060878
0.060878
0.068986
0.073041
0.085204
0.081150
0.089258
0.093313
0.089258
0.085204
0.089258
0.089258
0.089258
0.093313
0.113585
0.117639
0.129802
0.133857
0.146020
0.141965
0.137911
0.137911
0.141965
0.121693
0.105476
0.081150
0.040606
0.024388
0.012225
0.000062
-0.008047
-0.003993
-0.008047
-0.016156
-0.016156
-0.012102
-0.008047
-0.016156
-0.003993
-0.008047
0.000062
0.016279
0.020334
0.020334
0.024388
0.028442
0.028442
0.028442
0.020334
0.016279
0.008170
0.012225
0.008170
0.012225
0.008170
0.008170
0.008170
0.012225
0.008170
0.008170
0.012225
0.016279
0.012225
0.016279
0.012225
0.020334
0.024388
0.016279
0.016279
0.012225
0.004116
-0.016156
-0.008047
0.000062
0.012225
0.016279
0.012225
0.008170
0.008170
0.016279
0.024388
0.024388
0.028442
-0.016156
-0.093190
-0.356725
-0.624316
-0.798655
-0.790546
-0.612152
-0.397269
-0.239148
-0.149951
-0.052646
-0.008047
0.008170
0.020334
0.032497
0.036551
0.044660
0.048714
0.048714
0.052769
0.068986
0.064932
0.077095
0.073041
0.085204
0.081150
0.089258
0.093313
0.089258
0.097367
0.109530
0.097367
0.085204
0.093313
0.097367
0.105476
0.125748
0.133857
0.150074
0.162237
0.166292
0.170346
0.178455
0.182509
0.170346
0.166292
0.129802
0.109530
0.073041
0.036551
0.016279
0.012225
0.012225
0.012225
0.000062
-0.008047
-0.003993
-0.003993
-0.003993
0.000062
0.008170
0.012225
0.016279
0.036551
0.044660
0.028442
0.024388
0.024388
0.016279
0.024388
0.032497
0.032497
0.028442
0.036551
0.036551
0.028442
0.032497
0.028442
0.028442
0.028442
0.024388
0.028442
0.024388
0.012225
0.004116
0.008170
0.012225
0.008170
0.016279
0.012225
0.012225
0.024388
0.016279
0.020334
0.016279
0.024388
0.016279
0.020334
0.020334
0.016279
0.016279
0.008170
0.008170
0.008170
0.004116
0.004116
-0.008047
0.008170
0.008170
0.012225
0.008170
0.008170
0.020334
0.016279
0.008170
0.000062
0.000062
0.000062
0.008170
0.008170
0.016279
0.016279
0.012225
0.012225
0.008170
0.008170
0.004116
0.004116
0.008170
0.004116
0.004116
0.004116
0.016279
0.000062
-0.064809
-0.324290
-0.652696
-0.883797
-0.956776
-0.762165
-0.539173
-0.320236
-0.178332
-0.072918
0.000062
0.016279
0.028442
0.044660
0.052769
0.060878
0.068986
0.081150
0.081150
0.093313
0.093313
0.089258
0.105476
0.097367
0.097367
0.089258
0.077095
0.081150
0.077095
0.085204
0.081150
0.093313
0.109530
0.121693
0.129802
0.146020
0.158183
0.178455
0.190618
0.202781
0.202781
0.202781
0.182509
0.162237
0.146020
0.125748
0.105476
0.077095
0.048714
0.032497
0.008170
-0.003993
-0.024265
-0.016156
-0.012102
-0.012102
-0.008047
0.000062
0.000062
-0.008047
-0.003993
0.000062
0.008170
0.004116
0.004116
0.004116
0.012225
0.012225
0.020334
0.024388
0.024388
0.020334
0.012225
0.012225
0.004116
0.000062
0.012225
0.028442
0.028442
0.024388
0.024388
0.020334
0.028442
0.028442
0.016279
0.016279
0.020334
0.012225
0.004116
0.008170
-0.003993
0.000062
0.000062
0.008170
0.000062
0.004116
0.004116
0.008170
0.004116
0.012225
0.016279
0.020334
0.024388
0.012225
0.000062
-0.008047
-0.012102
-0.003993
-0.008047
0.000062
-0.003993
0.004116
0.000062
0.004116
0.016279
0.008170
0.008170
0.008170
-0.008047
0.004116
0.000062
0.000062
0.004116
0.008170
0.016279
0.016279
0.016279
0.012225
0.020334
0.024388
0.028442
0.012225
0.008170
-0.003993
0.008170
0.004116
0.020334
0.012225
0.004116
0.008170
-0.003993
0.008170
0.008170
0.008170
0.016279
0.020334
0.016279
0.012225
-0.036428
-0.117516
-0.376997
-0.652696
-0.827035
-0.814872
-0.644588
-0.393215
-0.218876
-0.101298
-0.008047
0.024388
0.036551
0.048714
0.052769
0.040606
0.048714
0.056823
0.048714
0.048714
0.052769
0.060878
0.060878
0.077095
0.073041
0.077095
0.085204
0.073041
0.077095
0.081150
0.089258
0.089258
0.085204
0.081150
0.089258
0.093313
0.097367
0.113585
0.117639
0.125748
0.129802
0.129802
0.125748
0.121693
0.121693
0.105476
0.085204
0.064932
0.048714
0.040606
0.028442
0.012225
0.004116
-0.003993
0.000062
-0.008047
-0.008047
-0.012102
-0.003993
-0.003993
0.000062
-0.003993
0.000062
0.000062
0.008170
0.008170
0.008170
0.024388
0.020334
0.020334
0.008170
0.012225
0.008170
0.012225
0.008170
0.012225
0.008170
0.004116
0.008170
0.008170
0.008170
0.020334
0.012225
0.008170
0.016279
0.016279
0.016279
0.020334
0.012225
0.012225
0.016279
0.016279
0.004116
-0.003993
0.012225
0.008170
0.012225
0.004116
0.000062
-0.003993
0.000062
0.004116
0.000062
0.000062
0.008170
0.008170
0.004116
0.008170
0.020334
0.016279
0.020334
0.024388
0.008170
0.004116
-0.008047
0.000062
-0.003993
0.008170
0.008170
0.008170
-0.020210
-0.076972
-0.267529
-0.575663
-0.814872
-0.891906
-0.758111
-0.531064
-0.312127
-0.178332
-0.060754
0.012225
0.036551
0.048714
0.052769
0.064932
0.064932
0.073041
0.077095
0.068986
0.068986
0.068986
0.060878
0.056823
0.060878
0.068986
0.060878
0.068986
0.073041
0.068986
0.081150
0.089258
0.089258
0.105476
0.113585
0.125748
0.137911
0.162237
0.178455
0.190618
0.190618
0.166292
0.158183
0.154129
0.150074
0.141965
0.121693
0.097367
0.077095
0.056823
0.044660
0.028442
0.020334
0.012225
0.016279
0.000062
0.004116
0.008170
0.004116
0.008170
0.008170
0.012225
0.012225
-0.003993
0.004116
0.004116
0.008170
0.012225
0.016279
0.020334
0.020334
0.012225
0.016279
0.012225
0.020334
0.020334
0.016279
0.028442
0.020334
0.020334
0.024388
0.020334
0.028442
0.032497
0.044660
0.048714
0.032497
0.012225
0.012225
0.012225
0.016279
0.008170
0.020334
0.024388
0.020334
0.012225
0.012225
0.004116
0.004116
0.004116
0.008170
0.016279
0.020334
0.032497
0.040606
0.044660
0.028442
0.024388
0.020334
0.008170
0.004116
0.000062
0.000062
-0.003993
0.000062
0.000062
0.004116
0.004116
0.012225
0.020334
0.024388
0.020334
0.024388
0.032497
0.036551
0.032497
0.016279
0.008170
0.020334
0.028442
0.028442
0.024388
0.016279
0.012225
0.020334
0.008170
-0.052646
-0.235093
-0.563500
-0.827035
-0.936504
-0.798655
-0.567554
-0.328345
-0.186441
-0.085081
-0.012102
0.028442
0.044660
0.068986
0.073041
0.073041
0.073041
0.077095
0.081150
0.085204
0.097367
0.097367
0.109530
0.109530
0.125748
0.146020
0.141965
0.125748
0.117639
0.109530
0.109530
0.121693
0.117639
0.129802
0.133857
0.146020
0.166292
0.170346
0.182509
0.190618
0.198727
0.210890
0.210890
0.206836
0.198727
0.174401
0.133857
0.105476
0.085204
0.056823
0.044660
0.024388
0.016279
0.000062
0.000062
-0.003993
0.000062
0.004116
0.008170
0.004116
-0.008047
0.004116
0.004116
0.016279
0.016279
0.028442
0.036551
0.040606
0.040606
0.052769
0.052769
0.060878
0.048714
0.056823
0.044660
0.020334
0.020334
0.024388
0.028442
0.028442
0.028442
0.032497
0.028442
0.028442
0.028442
0.016279
0.028442
0.032497
0.028442
0.036551
0.032497
0.032497
0.020334
0.012225
0.000062
-0.052646
-0.162114
-0.441868
-0.693240
-0.847307
-0.798655
-0.604044
-0.364834
-0.222930
-0.121570
-0.028319
0.012225
0.028442
0.036551
0.036551
0.044660
0.040606
0.048714
0.048714
0.052769
0.044660
0.056823
0.056823
0.044660
0.044660
0.044660
0.040606
0.048714
0.056823
0.064932
0.060878
0.073041
0.068986
0.073041
0.077095
0.105476
0.109530
0.125748
0.141965
0.141965
0.150074
0.146020
0.141965
0.121693
0.097367
0.077095
0.060878
0.040606
0.016279
0.004116
-0.003993
-0.020210
-0.016156
-0.016156
-0.003993
-0.016156
-0.024265
-0.012102
-0.003993
0.004116
0.004116
0.004116
0.004116
0.012225
0.008170
0.004116
0.004116
0.004116
0.008170
0.004116
0.000062
0.004116
0.000062
-0.003993
0.000062
-0.008047
-0.008047
-0.008047
-0.008047
-0.003993
0.000062
-0.003993
0.000062
-0.003993
-0.008047
-0.016156
-0.012102
-0.012102
-0.020210
-0.016156
-0.016156
-0.016156
-0.016156
-0.008047
-0.012102
-0.003993
-0.003993
0.004116
0.012225
0.016279
0.012225
0.020334
0.016279
0.012225
0.008170
-0.008047
-0.012102
-0.003993
-0.003993
0.000062
0.004116
0.008170
0.004116
0.008170
0.008170
0.012225
0.012225
0.012225
-0.008047
-0.064809
-0.239148
-0.551336
-0.798655
-0.908123
-0.778383
-0.551336
-0.308073
-0.166169
-0.076972
-0.012102
0.008170
0.020334
0.012225
0.020334
0.020334
0.028442
0.036551
0.040606
0.044660
0.048714
0.056823
0.064932
0.060878
0.077095
0.081150
0.085204
0.081150
0.085204
0.089258
0.093313
0.093313
0.101422
0.113585
0.117639
0.125748
0.129802
0.129802
0.137911
0.150074
0.158183
0.158183
0.162237
0.154129
0.129802
0.105476
0.085204
0.060878
0.044660
0.024388
0.008170
0.000062
-0.012102
-0.016156
-0.024265
-0.020210
-0.020210
-0.028319
-0.020210
-0.008047
0.004116
0.016279
0.020334
0.020334
0.028442
0.020334
0.024388
0.032497
0.036551
0.040606
0.040606
0.036551
0.032497
0.032497
0.036551
0.036551
0.028442
0.032497
0.028442
0.028442
0.032497
0.024388
0.020334
0.020334
0.036551
0.036551
0.040606
0.040606
0.028442
0.020334
0.012225
0.004116
-0.003993
-0.003993
0.004116
0.000062
0.012225
0.016279
0.016279
0.024388
0.028442
0.024388
0.028442
0.032497
0.028442
0.028442
0.016279
0.012225
0.004116
0.004116
0.016279
0.016279
0.016279
0.024388
0.016279
0.016279
0.020334
0.020334
0.016279
0.012225
0.008170
0.000062
-0.003993
0.004116
0.004116
0.012225
0.008170
0.020334
0.024388
0.012225
0.024388
0.016279
0.008170
0.008170
0.000062
0.000062
0.004116
0.000062
0.004116
0.000062
0.004116
0.004116
0.004116
0.008170
0.008170
0.020334
0.020334
0.024388
0.024388
0.028442
0.020334
0.028442
0.016279
0.012225
0.008170
0.000062
0.004116
-0.003993
-0.003993
0.000062
0.004116
-0.044537
-0.145897
-0.470249
-0.782437
-0.940559
-0.895960
-0.672968
-0.421596
-0.243202
-0.133734
-0.040482
0.004116
0.020334
0.036551
0.044660
0.036551
0.032497
0.048714
0.048714
0.048714
0.056823
0.068986
0.068986
0.073041
0.068986
0.081150
0.081150
0.085204
0.089258
0.097367
0.101422
0.109530
0.109530
0.109530
0.125748
0.117639
0.117639
0.125748
0.129802
0.125748
0.137911
0.150074
0.150074
0.150074
0.141965
0.125748
0.113585
0.097367
0.073041
0.068986
0.048714
0.036551
0.020334
0.000062
-0.012102
-0.020210
-0.028319
-0.036428
-0.040482
-0.036428
-0.032374
-0.032374
-0.020210
-0.020210
-0.008047
0.000062
0.016279
0.028442
0.036551
0.032497
0.032497
0.036551
0.044660
0.044660
0.040606
0.032497
0.028442
0.024388
0.024388
0.024388
0.024388
0.024388
0.020334
0.008170
0.008170
0.012225
0.008170
0.016279
0.020334
0.020334
0.020334
0.016279
0.016279
0.008170
0.012225
0.016279
0.012225
0.004116
0.000062
-0.008047
-0.008047
-0.008047
0.000062
0.004116
0.000062
-0.003993
0.004116
0.012225
0.008170
0.016279
0.016279
0.016279
0.020334
0.012225
-0.003993
-0.003993
-0.008047
-0.012102
-0.012102
-0.016156
-0.012102
-0.003993
0.004116
0.004116
0.012225
0.012225
0.016279
0.020334
0.024388
0.020334
0.020334
-0.003993
-0.008047
-0.028319
-0.076972
-0.170223
-0.449977
-0.717567
-0.867579
-0.827035
-0.640533
-0.401324
-0.243202
-0.133734
-0.024265
0.012225
0.016279
0.020334
0.032497
0.036551
0.032497
0.048714
0.044660
0.044660
0.048714
0.044660
0.040606
0.032497
0.036551
0.040606
0.044660
0.040606
0.036551
0.048714
0.048714
0.048714
0.064932
0.068986
0.081150
0.089258
0.113585
0.121693
0.137911
0.146020
0.141965
0.133857
0.125748
0.117639
0.113585
0.093313
0.077095
0.060878
0.040606
0.024388
0.008170
0.004116
0.000062
0.004116
0.008170
0.016279
0.016279
0.012225
0.012225
0.000062
0.004116
0.004116
0.004116
0.008170
0.016279
0.020334
0.028442
0.036551
0.036551
0.040606
0.052769
0.052769
0.044660
0.032497
0.028442
0.032497
0.036551
0.036551
0.024388
0.020334
0.024388
0.020334
0.028442
0.028442
0.040606
0.044660
0.040606
0.036551
0.036551
0.036551
0.036551
0.028442
0.024388
0.020334
0.020334
0.020334
0.032497
0.028442
0.024388
0.032497
0.032497
0.020334
0.024388
0.012225
0.012225
0.016279
0.016279
0.028442
0.032497
0.024388
0.036551
0.044660
0.036551
0.032497
0.032497
0.032497
0.004116
-0.008047
-0.003993
0.004116
0.000062
0.008170
0.004116
0.000062
0.008170
0.016279
0.016279
0.020334
0.028442
0.032497
0.048714
0.048714
0.036551
0.044660
0.044660
0.044660
0.040606
0.036551
0.032497
0.032497
0.024388
0.020334
-0.036428
-0.190495
-0.527010
-0.798655
-0.936504
-0.839199
-0.620261
-0.381052
-0.206713
-0.093190
0.008170
0.052769
0.064932
0.077095
0.077095
0.081150
0.073041
0.068986
0.068986
0.060878
0.048714
0.056823
0.060878
0.068986
0.085204
0.093313
0.101422
0.097367
0.113585
0.117639
0.109530
0.117639
0.113585
0.121693
0.141965
0.146020
0.162237
0.170346
0.174401
0.170346
0.170346
0.174401
0.174401
0.178455
0.170346
0.146020
0.137911
0.101422
0.068986
0.056823
0.040606
0.032497
0.032497
0.028442
0.028442
0.020334
0.012225
-0.003993
-0.012102
-0.020210
-0.024265
-0.016156
-0.012102
-0.003993
-0.003993
-0.008047
-0.003993
0.016279
0.020334
0.024388
0.024388
0.044660
0.044660
0.052769
0.052769
0.048714
0.044660
0.040606
0.028442
0.024388
0.016279
0.004116
0.004116
-0.008047
-0.003993
-0.003993
0.004116
-0.003993
0.000062
0.004116
0.004116
-0.008047
-0.012102
0.000062
0.000062
0.004116
0.012225
0.008170
0.004116
-0.028319
-0.089135
-0.320236
-0.620261
-0.847307
-0.900015
-0.725676
-0.490521
-0.287801
-0.170223
-0.064809
-0.020210
-0.003993
0.012225
0.024388
0.040606
0.048714
0.052769
0.056823
0.064932
0.064932
0.068986
0.064932
0.064932
0.064932
0.068986
0.064932
0.064932
0.068986
0.077095
0.089258
0.097367
0.101422
0.117639
0.129802
0.150074
0.154129
0.162237
0.174401
0.190618
0.194673
0.186564
0.178455
0.158183
0.141965
0.117639
0.101422
0.081150
0.056823
0.036551
0.028442
0.024388
0.012225
0.012225
0.012225
0.012225
0.016279
0.008170
0.008170
0.016279
0.020334
0.020334
0.020334
0.020334
0.016279
0.024388
0.020334
0.020334
0.032497
0.036551
0.040606
0.032497
0.036551
0.024388
0.024388
0.024388
0.024388
0.012225
-0.003993
0.004116
0.008170
0.000062
0.004116
0.008170
0.008170
0.012225
0.012225
0.016279
0.016279
0.024388
0.008170
0.012225
0.016279
0.020334
0.016279
0.024388
0.032497
0.024388
0.012225
0.008170
0.000062
-0.003993
0.000062
0.000062
0.008170
0.004116
0.000062
0.000062
-0.008047
-0.012102
-0.003993
0.004116
0.016279
0.008170
-0.048591
-0.154006
-0.421596
-0.693240
-0.855416
-0.831090
-0.640533
-0.413487
-0.243202
-0.141842
-0.032374
0.012225
0.028442
0.020334
0.016279
0.020334
0.016279
0.032497
0.032497
0.036551
0.040606
0.056823
0.052769
0.060878
0.077095
0.081150
0.089258
0.109530
0.105476
0.089258
0.081150
0.068986
0.068986
0.077095
0.085204
0.093313
0.097367
0.113585
0.117639
0.121693
0.133857
0.150074
0.146020
0.137911
0.129802
0.125748
0.101422
0.085204
0.068986
0.056823
0.044660
0.048714
0.036551
0.032497
0.016279
0.012225
0.008170
-0.003993
-0.003993
-0.008047
-0.012102
0.000062
0.004116
0.004116
0.012225
0.000062
0.012225
0.028442
0.028442
0.044660
0.056823
0.052769
0.056823
0.060878
0.052769
0.048714
0.056823
0.048714
0.048714
0.028442
0.024388
0.028442
0.024388
0.016279
0.028442
0.036551
0.028442
0.028442
0.024388
0.012225
0.004116
0.004116
0.008170
0.004116
0.008170
0.004116
-0.003993
-0.008047
-0.003993
-0.003993
-0.020210
-0.016156
-0.016156
-0.012102
-0.016156
-0.020210
-0.020210
-0.024265
-0.020210
-0.032374
-0.024265
-0.016156
-0.008047
0.004116
0.004116
0.008170
0.008170
0.000062
-0.003993
-0.012102
-0.016156
-0.020210
-0.024265
-0.028319
-0.020210
-0.008047
-0.003993
0.000062
0.004116
0.004116
0.012225
0.012225
0.024388
0.028442
0.028442
0.020334
0.008170
-0.003993
-0.008047
-0.012102
-0.020210
-0.020210
-0.012102
-0.024265
-0.076972
-0.251311
-0.547282
-0.794600
-0.875688
-0.754056
-0.547282
-0.320236
-0.178332
-0.056700
0.012225
0.040606
0.060878
0.064932
0.073041
0.073041
0.073041
0.068986
0.052769
0.048714
0.056823
0.056823
0.064932
0.064932
0.073041
0.077095
0.089258
0.093313
0.093313
0.105476
0.117639
0.121693
0.125748
0.125748
0.129802
0.146020
0.150074
0.154129
0.150074
0.146020
0.150074
0.141965
0.137911
0.133857
0.121693
0.113585
0.097367
0.085204
0.068986
0.052769
0.032497
0.032497
0.016279
0.008170
0.004116
0.004116
0.008170
0.000062
-0.008047
-0.012102
-0.016156
-0.016156
-0.020210
-0.020210
-0.020210
-0.003993
0.000062
0.016279
0.024388
0.036551
0.044660
0.036551
0.032497
0.040606
0.044660
0.044660
0.044660
0.036551
0.024388
0.028442
0.024388
0.020334
0.012225
0.024388
0.012225
0.012225
0.004116
-0.003993
0.004116
0.008170
0.004116
0.004116
0.020334
0.012225
0.020334
0.020334
0.020334
0.016279
0.012225
0.008170
0.012225
0.004116
-0.012102
-0.016156
-0.016156
-0.020210
-0.016156
-0.003993
0.004116
-0.003993
-0.003993
0.008170
0.008170
0.016279
0.016279
0.020334
0.024388
0.024388
0.012225
0.008170
0.008170
0.012225
0.000062
-0.008047
0.000062
0.000062
0.000062
-0.003993
0.000062
0.000062
0.008170
0.016279
0.020334
0.008170
0.012225
0.016279
0.016279
0.016279
0.024388
0.020334
0.024388
0.024388
0.020334
0.012225
0.008170
0.000062
-0.003993
0.000062
0.004116
0.012225
0.012225
0.016279
0.016279
0.016279
0.016279
0.024388
0.012225
0.016279
0.016279
0.024388
0.016279
0.020334
0.020334
-0.024265
-0.133734
-0.441868
-0.758111
-0.932450
-0.916232
-0.705404
-0.478357
-0.271583
-0.141842
-0.020210
0.024388
0.036551
0.052769
0.060878
0.064932
0.073041
0.077095
0.081150
0.077095
0.073041
0.081150
0.068986
0.060878
0.068986
0.068986
0.073041
0.077095
0.081150
0.077095
0.085204
0.097367
0.109530
0.109530
0.129802
0.137911
0.158183
0.170346
0.186564
0.194673
0.194673
0.194673
0.174401
0.158183
0.150074
0.133857
0.121693
0.093313
0.064932
0.048714
0.036551
0.020334
0.012225
0.028442
0.012225
0.016279
0.012225
0.020334
0.020334
0.012225
0.004116
-0.003993
-0.012102
-0.016156
-0.003993
0.004116
0.008170
0.016279
0.016279
0.016279
0.024388
0.032497
0.044660
0.044660
0.044660
0.052769
0.048714
0.036551
0.036551
0.028442
0.036551
0.024388
0.024388
0.032497
0.024388
0.024388
0.024388
0.024388
0.032497
0.032497
0.016279
0.016279
0.016279
0.008170
0.004116
0.008170
-0.003993
-0.003993
0.004116
0.000062
0.004116
0.012225
0.012225
0.004116
0.000062
-0.003993
-0.008047
-0.008047
-0.003993
-0.003993
0.008170
0.008170
0.004116
0.008170
0.020334
0.016279
0.008170
0.012225
0.012225
0.008170
0.008170
0.004116
-0.003993
-0.008047
-0.003993
-0.003993
0.004116
0.012225
0.016279
0.020334
0.024388
0.020334
0.020334
-0.032374
-0.125625
-0.381052
-0.664860
-0.859471
-0.871634
-0.693240
-0.470249
-0.271583
-0.158060
-0.052646
-0.003993
0.028442
0.044660
0.048714
0.064932
0.077095
0.081150
0.085204
0.081150
0.068986
0.060878
0.056823
0.044660
0.048714
0.052769
0.048714
0.060878
0.056823
0.060878
0.073041
0.081150
0.081150
0.097367
0.109530
0.129802
0.146020
0.146020
0.162237
0.158183
0.150074
0.141965
0.137911
0.121693
0.113585
0.097367
0.073041
0.056823
0.040606
0.020334
0.000062
-0.016156
-0.024265
-0.024265
-0.016156
-0.012102
-0.008047
0.000062
0.004116
0.004116
0.004116
0.004116
-0.003993
0.000062
0.004116
0.000062
-0.003993
-0.003993
0.000062
-0.008047
0.000062
0.008170
0.008170
0.016279
0.012225
0.016279
0.020334
0.020334
0.016279
0.016279
0.008170
0.004116
-0.003993
-0.008047
-0.008047
-0.008047
-0.008047
-0.003993
-0.008047
-0.003993
0.004116
0.016279
0.016279
0.024388
0.020334
0.028442
0.016279
0.012225
0.004116
0.008170
0.008170
0.000062
0.004116
0.008170
0.020334
0.016279
0.012225
0.012225
0.016279
0.016279
0.020334
0.024388
0.016279
0.004116
0.004116
0.008170
0.004116
0.004116
0.012225
0.008170
0.004116
0.000062
0.012225
0.016279
0.016279
0.016279
0.016279
0.024388
0.020334
0.024388
0.016279
0.008170
0.004116
0.008170
0.004116
0.012225
0.008170
0.012225
0.012225
0.012225
0.016279
0.020334
0.020334
0.028442
0.028442
0.028442
0.016279
0.012225
0.008170
0.000062
0.012225
0.024388
0.024388
0.020334
0.028442
0.020334
0.028442
0.024388
0.024388
0.024388
0.024388
0.024388
0.016279
0.012225
0.008170
0.004116
0.008170
0.012225
-0.008047
-0.076972
-0.340508
-0.660805
-0.871634
-0.916232
-0.725676
-0.506738
-0.287801
-0.154006
-0.040482
0.012225
0.032497
0.048714
0.060878
0.068986
0.064932
0.073041
0.077095
0.077095
0.101422
0.093313
0.105476
0.109530
0.109530
0.117639
0.105476
0.097367
0.081150
0.085204
0.081150
0.068986
0.081150
0.097367
0.109530
0.117639
0.129802
0.146020
0.158183
0.178455
0.182509
0.190618
0.194673
0.190618
0.182509
0.162237
0.146020
0.125748
0.109530
0.085204
0.068986
0.056823
0.044660
0.032497
0.024388
0.012225
0.008170
0.012225
0.012225
-0.003993
-0.003993
0.000062
0.008170
0.008170
0.008170
0.004116
0.012225
0.024388
0.040606
0.044660
0.040606
0.048714
0.040606
0.036551
0.036551
0.036551
0.036551
0.032497
0.028442
0.036551
0.028442
0.028442
0.020334
0.024388
0.024388
0.040606
0.032497
0.028442
0.032497
0.032497
0.024388
0.020334
0.028442
0.024388
0.024388
0.012225
0.008170
0.008170
0.012225
0.008170
0.004116
0.008170
0.004116
0.004116
0.008170
-0.008047
0.000062
0.008170
0.008170
0.004116
0.008170
0.008170
-0.003993
0.000062
0.000062
0.000062
-0.008047
-0.020210
-0.024265
-0.028319
-0.020210
-0.028319
-0.012102
-0.020210
-0.016156
-0.016156
-0.008047
0.004116
0.008170
0.008170
0.012225
0.020334
0.024388
0.012225
0.008170
0.000062
0.008170
-0.008047
-0.012102
-0.003993
-0.056700
-0.141842
-0.409433
-0.697295
-0.891906
-0.883797
-0.693240
-0.466194
-0.255365
-0.145897
-0.044537
0.004116
0.020334
0.028442
0.032497
0.032497
0.040606
0.048714
0.052769
0.056823
0.060878
0.052769
0.056823
0.060878
0.068986
0.073041
0.073041
0.068986
0.056823
0.064932
0.068986
0.068986
0.077095
0.085204
0.093313
0.105476
0.109530
0.117639
0.133857
0.133857
0.129802
0.129802
0.121693
0.109530
0.105476
0.101422
0.085204
0.073041
0.056823
0.044660
0.028442
0.016279
0.012225
0.012225
0.012225
0.012225
0.004116
0.008170
0.000062
-0.016156
-0.008047
-0.012102
-0.012102
-0.012102
-0.012102
-0.003993
0.012225
0.012225
0.016279
0.016279
0.012225
0.012225
0.020334
0.008170
0.020334
0.028442
0.016279
0.020334
0.020334
0.016279
0.016279
0.004116
0.004116
0.004116
-0.003993
0.004116
0.012225
0.004116
-0.008047
-0.008047
-0.003993
0.004116
0.008170
0.008170
0.008170
0.008170
0.000062
-0.012102
-0.012102
-0.016156
-0.016156
-0.016156
-0.012102
-0.016156
-0.020210
-0.008047
-0.012102
-0.003993
-0.008047
0.000062
0.004116
0.008170
0.012225
0.012225
0.004116
0.016279
0.012225
0.000062
0.008170
0.004116
0.004116
0.000062
-0.012102
-0.016156
-0.016156
-0.003993
0.000062
0.004116
0.000062
0.000062
0.008170
0.008170
0.008170
0.008170
0.004116
0.000062
0.004116
-0.003993
0.004116
0.012225
0.016279
0.024388
0.000062
-0.068863
-0.263474
-0.559445
-0.806764
-0.908123
-0.778383
-0.571608
-0.352671
-0.206713
-0.093190
-0.008047
0.016279
0.032497
0.036551
0.052769
0.048714
0.056823
0.056823
0.060878
0.085204
0.077095
0.064932
0.060878
0.056823
0.060878
0.052769
0.056823
0.052769
0.060878
0.060878
0.064932
0.060878
0.077095
0.085204
0.101422
0.113585
0.141965
0.150074
0.166292
0.174401
0.182509
0.190618
0.186564
0.174401
0.158183
0.137911
0.117639
0.093313
0.052769
0.016279
-0.008047
-0.016156
-0.028319
-0.032374
-0.028319
-0.020210
-0.024265
-0.024265
-0.016156
-0.020210
-0.008047
-0.003993
0.008170
0.016279
0.020334
0.016279
0.008170
0.004116
0.008170
0.008170
0.012225
0.020334
0.016279
0.024388
0.020334
0.024388
0.024388
0.020334
0.020334
0.016279
0.016279
0.012225
0.012225
0.020334
0.016279
0.012225
0.012225
0.016279
0.024388
0.032497
0.028442
0.032497
0.032497
0.016279
0.008170
0.008170
0.008170
0.016279
0.016279
0.016279
0.012225
0.016279
0.024388
0.016279
0.012225
0.012225
0.012225
0.012225
0.008170
0.012225
0.012225
0.012225
0.012225
0.012225
0.008170
0.008170
0.016279
0.012225
0.000062
0.004116
0.004116
0.000062
0.008170
0.008170
0.024388
0.028442
0.020334
0.016279
0.008170
0.020334
0.020334
0.024388
0.020334
0.016279
0.028442
0.032497
0.028442
0.028442
0.024388
0.024388
0.028442
0.028442
0.024388
0.024388
0.020334
0.004116
-0.003993
-0.028319
-0.093190
-0.360780
-0.660805
-0.875688
-0.924341
-0.737839
-0.514847
-0.295909
-0.166169
-0.040482
0.016279
0.048714
0.056823
0.073041
0.089258
0.085204
0.089258
0.085204
0.068986
0.073041
0.073041
0.068986
0.068986
0.068986
0.081150
0.085204
0.085204
0.089258
0.089258
0.101422
0.105476
0.113585
0.117639
0.117639
0.137911
0.141965
0.154129
0.158183
0.162237
0.178455
0.174401
0.170346
0.158183
0.150074
0.129802
0.121693
0.093313
0.064932
0.044660
0.032497
0.028442
0.016279
0.004116
-0.003993
-0.008047
-0.016156
-0.024265
-0.016156
-0.008047
-0.012102
-0.008047
0.000062
0.000062
-0.003993
-0.003993
-0.008047
-0.012102
-0.008047
-0.016156
-0.016156
-0.024265
-0.016156
-0.008047
0.000062
0.004116
0.012225
0.012225
0.016279
0.020334
0.040606
0.040606
0.040606
0.040606
0.032497
0.012225
0.020334
0.016279
0.004116
0.004116
0.000062
-0.003993
-0.008047
-0.008047
-0.003993
-0.003993
0.000062
0.004116
0.012225
0.024388
0.016279
0.012225
0.012225
0.012225
0.008170
0.008170
0.004116
0.000062
-0.008047
-0.012102
-0.008047
-0.020210
-0.016156
-0.020210
-0.003993
-0.008047
0.004116
0.008170
0.008170
0.012225
0.016279
0.012225
0.020334
0.024388
0.016279
0.024388
0.020334
0.004116
0.004116
0.008170
0.016279
0.008170
0.024388
0.012225
-0.008047
0.004116
0.008170
0.004116
0.012225
0.008170
0.008170
0.008170
0.008170
0.016279
0.016279
0.012225
0.016279
0.020334
0.008170
0.004116
0.000062
-0.003993
-0.003993
0.004116
0.000062
0.004116
0.004116
0.008170
0.020334
0.016279
0.016279
0.016279
0.020334
0.024388
0.008170
0.000062
0.000062
0.008170
0.004116
-0.032374
-0.117516
-0.368889
-0.656751
-0.847307
-0.847307
-0.681077
-0.470249
-0.263474
-0.154006
-0.040482
0.004116
0.020334
0.040606
0.048714
0.052769
0.060878
0.052769
0.052769
0.056823
0.064932
0.068986
0.056823
0.073041
0.064932
0.060878
0.064932
0.068986
0.056823
0.064932
0.077095
0.081150
0.097367
0.105476
0.117639
0.117639
0.141965
0.150074
0.166292
0.154129
0.137911
0.129802
0.121693
0.117639
0.121693
0.105476
0.089258
0.068986
0.052769
0.036551
0.032497
0.020334
0.020334
0.020334
0.020334
0.024388
0.032497
0.032497
0.020334
0.016279
0.004116
0.000062
-0.008047
0.000062
0.008170
0.012225
0.016279
0.008170
0.016279
0.020334
0.028442
0.036551
0.036551
0.036551
0.036551
0.048714
0.044660
0.052769
0.048714
0.048714
0.052769
0.048714
0.048714
0.048714
0.044660
0.036551
0.036551
0.036551
0.024388
0.012225
0.012225
0.004116
0.008170
0.008170
0.012225
0.012225
0.012225
0.020334
0.020334
0.016279
0.024388
0.004116
0.016279
0.004116
0.016279
0.012225
0.016279
0.016279
0.012225
0.024388
0.032497
0.020334
0.012225
0.012225
0.012225
0.012225
0.004116
-0.003993
0.000062
-0.008047
0.000062
-0.056700
-0.149951
-0.433759
-0.717567
-0.895960
-0.859471
-0.640533
-0.405378
-0.218876
-0.117516
-0.003993
0.036551
0.044660
0.048714
0.040606
0.032497
0.036551
0.032497
0.036551
0.048714
0.052769
0.056823
0.064932
0.068986
0.081150
0.089258
0.101422
0.097367
0.093313
0.109530
0.097367
0.105476
0.113585
0.105476
0.093313
0.093313
0.105476
0.117639
0.117639
0.133857
0.141965
0.154129
0.158183
0.162237
0.154129
0.141965
0.129802
0.105476
0.085204
0.064932
0.052769
0.028442
0.016279
0.000062
-0.008047
-0.020210
-0.024265
-0.036428
-0.036428
-0.028319
-0.028319
-0.032374
-0.016156
-0.016156
-0.008047
0.000062
0.012225
0.012225
0.016279
0.016279
0.020334
0.020334
0.020334
0.012225
0.008170
0.008170
0.008170
0.000062
0.004116
0.004116
0.004116
0.000062
0.000062
0.000062
0.004116
0.008170
0.016279
0.008170
0.012225
-0.003993
-0.012102
-0.012102
-0.016156
-0.028319
-0.024265
-0.016156
0.000062
-0.008047
0.004116
0.012225
0.016279
0.016279
0.016279
0.008170
0.004116
0.004116
0.000062
0.004116
0.004116
0.000062
-0.008047
-0.008047
-0.003993
-0.003993
0.000062
-0.003993
0.004116
0.004116
0.004116
0.008170
0.008170
0.012225
0.016279
0.012225
0.012225
0.016279
0.020334
0.016279
0.012225
0.000062
0.000062
-0.016156
-0.016156
-0.016156
-0.012102
-0.003993
-0.008047
-0.008047
0.000062
-0.003993
0.008170
0.012225
0.012225
0.012225
0.008170
0.008170
0.000062
-0.012102
-0.020210
-0.012102
-0.012102
-0.012102
-0.012102
-0.012102
-0.008047
-0.012102
-0.012102
0.000062
0.004116
-0.003993
0.000062
0.000062
-0.003993
-0.008047
-0.012102
-0.008047
-0.003993
-0.008047
0.000062
0.004116
0.000062
-0.008047
-0.008047
-0.016156
-0.024265
-0.024265
-0.028319
-0.024265
-0.020210
-0.020210
-0.012102
-0.012102
-0.003993
0.000062
0.004116
0.012225
0.012225
0.016279
0.020334
0.016279
0.012225
0.008170
-0.003993
0.000062
-0.008047
-0.012102
-0.020210
-0.016156
-0.012102
-0.012102
-0.003993
0.000062
-0.003993
-0.003993
-0.003993
0.004116
0.004116
0.008170
0.016279
0.004116
0.004116
0.000062
0.004116
0.004116
0.000062
0.000062
-0.003993
-0.003993
-0.003993
-0.008047
-0.008047
-0.008047
0.004116
0.004116
0.008170
0.020334
0.028442
0.020334
0.016279
0.016279
0.020334
0.020334
0.028442
0.020334
0.020334
0.012225
0.012225
0.004116
0.004116
0.000062
-0.003993
0.008170
0.012225
0.012225
0.012225
0.004116
0.004116
0.008170
0.012225
0.012225
0.016279
0.020334
0.016279
0.016279
0.020334
0.016279
0.024388
0.020334
0.016279
0.008170
-0.012102
-0.003993
-0.008047
-0.003993
0.000062
0.000062
0.008170
0.012225
0.016279
0.020334
0.024388
0.016279
0.020334
0.012225
0.012225
0.004116
0.004116
0.008170
0.008170
0.008170
0.016279
0.016279
0.008170
0.016279
0.016279
0.008170
0.004116
-0.003993
-0.003993
0.000062
0.008170
0.004116
0.004116
0.012225
0.020334
0.020334
0.020334
0.020334
0.016279
0.028442
0.020334
0.008170
-0.003993
-0.020210
-0.064809
-0.162114
-0.454031
-0.737839
-0.883797
-0.835144
-0.660805
-0.425650
-0.251311
-0.125625
-0.028319
0.008170
0.032497
0.044660
0.056823
0.052769
0.060878
0.056823
0.060878
0.052769
0.052769
0.052769
0.052769
0.056823
0.068986
0.068986
0.073041
0.073041
0.081150
0.081150
0.089258
0.085204
0.089258
0.101422
0.109530
0.113585
0.121693
0.129802
0.150074
0.150074
0.158183
0.170346
0.158183
0.158183
0.154129
0.150074
0.125748
0.117639
0.101422
0.081150
0.056823
0.048714
0.040606
0.036551
0.028442
0.028442
0.016279
0.024388
0.012225
0.004116
0.000062
-0.003993
-0.012102
-0.008047
-0.012102
-0.012102
-0.016156
0.008170
0.004116
0.012225
0.020334
0.028442
0.032497
0.028442
0.024388
0.036551
0.036551
0.044660
0.036551
0.032497
0.032497
0.024388
0.016279
0.012225
0.004116
0.008170
0.012225
0.012225
0.020334
0.024388
0.020334
0.024388
0.020334
0.016279
0.020334
0.024388
0.016279
0.020334
0.016279
0.016279
0.016279
0.008170
0.012225
0.008170
0.008170
0.004116
0.016279
0.004116
0.008170
0.004116
0.000062
0.008170
0.012225
0.020334
0.024388
0.028442
0.012225
0.008170
0.004116
0.004116
0.004116
0.008170
-0.003993
0.000062
0.000062
0.000062
0.004116
0.004116
0.012225
0.020334
0.016279
0.016279
0.016279
0.004116
0.004116
0.012225
0.008170
0.012225
0.016279
0.020334
0.016279
0.020334
0.016279
0.020334
0.020334
0.024388
0.028442
0.020334
0.004116
0.008170
-0.003993
-0.003993
0.004116
-0.003993
0.004116
-0.003993
0.004116
0.008170
0.012225
-0.040482
-0.141842
-0.433759
-0.721621
-0.887851
-0.863525
-0.672968
-0.454031
-0.259420
-0.141842
-0.028319
0.004116
0.024388
0.040606
0.040606
0.052769
0.052769
0.052769
0.060878
0.064932
0.068986
0.064932
0.056823
0.068986
0.073041
0.073041
0.073041
0.077095
0.068986
0.081150
0.085204
0.105476
0.101422
0.117639
0.137911
0.146020
0.158183
0.166292
0.178455
0.178455
0.190618
0.186564
0.194673
0.186564
0.178455
0.166292
0.154129
0.133857
0.113585
0.089258
0.068986
0.052769
0.012225
-0.003993
-0.020210
-0.003993
-0.008047
-0.012102
-0.012102
-0.012102
-0.008047
-0.008047
-0.008047
-0.003993
0.004116
0.000062
0.008170
0.016279
0.012225
0.024388
0.020334
0.020334
0.024388
0.024388
0.028442
0.028442
0.036551
0.036551
0.028442
0.024388
0.020334
0.028442
0.024388
0.020334
0.020334
0.012225
0.016279
0.012225
0.012225
0.008170
0.004116
0.000062
0.004116
0.004116
0.008170
0.012225
0.020334
0.028442
0.024388
0.024388
0.020334
0.004116
0.016279
0.016279
0.020334
0.020334
0.020334
0.020334
0.012225
0.008170
0.000062
0.008170
0.012225
0.012225
0.008170
0.016279
-0.008047
-0.085081
-0.295909
-0.567554
-0.806764
-0.883797
-0.737839
-0.527010
-0.308073
-0.190495
-0.085081
-0.012102
0.016279
0.032497
0.048714
0.048714
0.044660
0.044660
0.052769
0.060878
0.068986
0.064932
0.068986
0.085204
0.085204
0.081150
0.068986
0.068986
0.073041
0.064932
0.077095
0.085204
0.093313
0.097367
0.093313
0.105476
0.121693
0.137911
0.146020
0.146020
0.154129
0.158183
0.154129
0.154129
0.146020
0.133857
0.117639
0.101422
0.081150
0.064932
0.048714
0.036551
0.024388
0.012225
0.000062
-0.003993
-0.003993
0.000062
-0.008047
-0.012102
-0.012102
-0.020210
-0.008047
0.008170
0.012225
0.016279
0.024388
0.028442
0.028442
0.016279
0.012225
0.012225
0.004116
0.012225
0.016279
0.020334
0.024388
0.024388
0.028442
0.028442
0.020334
0.024388
0.024388
0.024388
0.028442
0.024388
0.020334
0.020334
0.012225
0.016279
0.008170
0.016279
0.016279
0.016279
0.016279
0.036551
0.024388
0.024388
0.016279
0.000062
-0.003993
-0.012102
-0.008047
-0.008047
0.000062
-0.003993
-0.003993
-0.003993
-0.003993
-0.003993
0.004116
-0.008047
0.004116
0.012225
0.008170
0.024388
0.020334
0.012225
0.012225
0.004116
0.008170
-0.028319
-0.072918
-0.247257
-0.502684
-0.745948
-0.835144
-0.733784
-0.543228
-0.328345
-0.198604
-0.093190
-0.032374
-0.003993
0.020334
0.036551
0.048714
0.056823
0.052769
0.052769
0.060878
0.068986
0.064932
0.060878
0.064932
0.060878
0.052769
0.048714
0.040606
0.048714
0.040606
0.048714
0.044660
0.044660
0.048714
0.056823
0.081150
0.101422
0.109530
0.121693
0.109530
0.121693
0.137911
0.141965
0.137911
0.133857
0.129802
0.113585
0.105476
0.081150
0.052769
0.036551
0.028442
0.008170
0.000062
0.000062
-0.012102
-0.016156
-0.020210
-0.016156
-0.012102
-0.012102
0.000062
0.004116
0.008170
0.020334
0.016279
0.024388
0.024388
0.024388
0.020334
0.016279
0.016279
0.024388
0.036551
0.040606
0.028442
0.032497
0.032497
0.048714
0.044660
0.040606
0.036551
0.032497
0.032497
0.040606
0.040606
0.040606
0.028442
0.016279
0.020334
0.020334
0.016279
0.028442
0.036551
0.040606
0.036551
0.040606
0.036551
0.024388
0.024388
0.024388
0.028442
0.028442
0.028442
0.028442
0.016279
0.008170
0.012225
0.012225
0.012225
0.020334
0.020334
0.028442
0.040606
0.036551
0.036551
0.040606
0.032497
0.032497
0.024388
0.024388
0.016279
0.012225
0.012225
0.020334
0.020334
0.016279
0.012225
0.020334
0.020334
0.020334
0.016279
0.024388
0.032497
0.032497
0.032497
0.032497
0.028442
0.032497
0.032497
0.028442
0.024388
0.020334
0.016279
-0.036428
-0.149951
-0.462140
-0.745948
-0.904069
-0.871634
-0.668914
-0.445922
-0.255365
-0.137788
-0.020210
0.020334
0.040606
0.052769
0.060878
0.077095
0.077095
0.089258
0.085204
0.089258
0.093313
0.089258
0.077095
0.073041
0.077095
0.077095
0.081150
0.077095
0.085204
0.085204
0.093313
0.093313
0.101422
0.109530
0.125748
0.133857
0.137911
0.162237
0.174401
0.174401
0.186564
0.190618
0.190618
0.186564
0.166292
0.154129
0.129802
0.113585
0.089258
0.056823
0.036551
0.012225
0.000062
-0.008047
-0.012102
-0.008047
-0.016156
-0.008047
-0.012102
-0.016156
-0.012102
-0.003993
0.004116
0.004116
0.004116
-0.003993
-0.012102
-0.012102
-0.003993
-0.003993
0.000062
0.016279
0.032497
0.032497
0.032497
0.024388
0.020334
0.024388
0.020334
0.024388
0.020334
0.016279
0.016279
0.000062
-0.003993
-0.008047
-0.020210
-0.008047
0.000062
-0.008047
-0.008047
0.000062
0.004116
0.016279
0.020334
0.020334
0.016279
0.016279
0.016279
0.000062
-0.012102
-0.012102
-0.008047
-0.016156
0.000062
-0.003993
-0.012102
-0.003993
-0.016156
-0.020210
-0.012102
-0.008047
-0.020210
-0.060754
-0.186441
-0.478357
-0.750002
-0.879743
-0.827035
-0.616207
-0.385106
-0.231039
-0.117516
-0.024265
0.008170
0.012225
0.024388
0.032497
0.044660
0.052769
0.056823
0.068986
0.077095
0.077095
0.073041
0.060878
0.064932
0.064932
0.064932
0.073041
0.077095
0.093313
0.089258
0.093313
0.097367
0.101422
0.113585
0.121693
0.133857
0.137911
0.150074
0.170346
0.178455
0.182509
0.182509
0.166292
0.158183
0.150074
0.137911
0.117639
0.089258
0.064932
0.048714
0.036551
0.036551
0.024388
0.020334
0.020334
0.020334
0.020334
0.016279
0.000062
-0.003993
-0.003993
-0.012102
-0.003993
0.000062
-0.003993
0.008170
0.012225
0.020334
0.028442
0.032497
0.032497
0.028442
0.040606
0.048714
0.048714
0.048714
0.052769
0.028442
0.024388
0.020334
0.012225
0.012225
0.008170
0.004116
0.008170
0.016279
0.020334
0.028442
0.032497
0.032497
0.036551
0.040606
0.032497
0.008170
-0.008047
-0.003993
-0.008047
-0.012102
-0.008047
0.000062
-0.008047
-0.008047
-0.012102
-0.012102
-0.008047
-0.003993
-0.012102
-0.003993
0.000062
-0.003993
-0.020210
-0.020210
-0.016156
-0.012102
-0.012102
-0.076972
-0.202658
-0.482412
-0.725676
-0.867579
-0.798655
-0.612152
-0.368889
-0.218876
-0.113462
-0.028319
-0.008047
0.004116
0.024388
0.032497
0.040606
0.044660
0.044660
0.052769
0.056823
0.060878
0.068986
0.073041
0.068986
0.073041
0.081150
0.081150
0.077095
0.077095
0.073041
0.085204
0.081150
0.089258
0.101422
0.109530
0.117639
0.125748
0.129802
0.125748
0.137911
0.133857
0.146020
0.154129
0.146020
0.137911
0.125748
0.109530
0.093313
0.073041
0.056823
0.032497
0.012225
0.004116
0.000062
-0.008047
0.000062
-0.003993
-0.008047
-0.008047
0.004116
0.008170
0.012225
0.012225
0.020334
0.028442
0.032497
0.036551
0.028442
0.024388
0.024388
0.024388
0.024388
0.020334
0.020334
0.016279
0.016279
0.016279
0.016279
0.016279
0.016279
0.020334
0.032497
0.024388
0.028442
0.020334
0.020334
0.020334
0.012225
0.016279
0.008170
0.008170
0.004116
0.000062
-0.003993
0.000062
0.004116
-0.008047
-0.012102
-0.003993
0.000062
-0.016156
-0.012102
-0.003993
0.004116
0.012225
0.012225
0.012225
0.008170
0.012225
0.012225
0.012225
0.004116
0.000062
0.008170
0.008170
0.008170
0.008170
-0.024265
-0.089135
-0.287801
-0.563500
-0.802709
-0.883797
-0.741893
-0.531064
-0.304018
-0.174278
-0.060754
0.012225
0.040606
0.060878
0.077095
0.064932
0.073041
0.060878
0.044660
0.048714
0.056823
0.064932
0.064932
0.060878
0.064932
0.073041
0.077095
0.077095
0.089258
0.085204
0.093313
0.101422
0.101422
0.109530
0.113585
0.125748
0.137911
0.166292
0.174401
0.186564
0.202781
0.210890
0.206836
0.186564
0.174401
0.154129
0.129802
0.105476
0.085204
0.056823
0.040606
0.028442
0.028442
0.020334
0.016279
0.020334
0.012225
0.020334
0.012225
0.008170
0.016279
0.012225
0.020334
0.012225
0.004116
0.000062
0.000062
-0.003993
-0.003993
-0.003993
-0.003993
0.008170
0.016279
0.016279
0.024388
0.028442
0.032497
0.032497
0.036551
0.036551
0.036551
0.032497
0.024388
0.016279
0.012225
0.008170
0.008170
0.000062
0.004116
0.004116
-0.003993
0.004116
0.004116
-0.003993
0.012225
0.016279
0.008170
0.004116
0.008170
0.008170
0.000062
0.000062
-0.012102
-0.028319
-0.024265
-0.024265
-0.020210
-0.028319
-0.008047
-0.016156
-0.008047
-0.016156
-0.012102
-0.003993
0.000062
-0.003993
-0.003993
-0.024265
-0.089135
-0.275637
-0.571608
-0.806764
-0.895960
-0.770274
-0.555391
-0.332399
-0.194550
-0.068863
0.008170
0.016279
0.016279
0.024388
0.024388
0.032497
0.032497
0.028442
0.032497
0.028442
0.024388
0.024388
0.036551
0.040606
0.048714
0.048714
0.056823
0.060878
0.073041
0.073041
0.073041
0.085204
0.089258
0.109530
0.109530
0.133857
0.141965
0.146020
0.141965
0.146020
0.162237
0.158183
0.170346
0.162237
0.150074
0.117639
0.085204
0.052769
0.032497
0.016279
0.000062
0.000062
-0.008047
-0.003993
0.004116
-0.003993
-0.008047
-0.003993
0.000062
0.000062
0.008170
0.008170
0.004116
0.012225
0.012225
0.016279
0.012225
0.016279
0.012225
0.020334
0.020334
0.028442
0.036551
0.032497
0.024388
0.028442
0.016279
0.016279
0.016279
0.024388
0.012225
0.028442
0.024388
0.028442
0.020334
0.020334
0.012225
0.028442
0.024388
0.028442
0.028442
0.036551
0.028442
0.028442
0.016279
0.012225
0.008170
0.008170
0.004116
0.012225
0.024388
0.024388
0.024388
0.028442
0.032497
0.032497
0.028442
0.020334
0.020334
0.028442
0.028442
0.012225
0.000062
-0.012102
-0.008047
-0.008047
0.000062
0.000062
0.008170
0.004116
-0.003993
0.004116
0.016279
0.020334
0.024388
0.032497
0.044660
0.028442
0.028442
0.020334
0.024388
0.024388
0.012225
0.012225
0.020334
0.024388
0.016279
0.012225
0.016279
0.016279
0.016279
0.012225
0.016279
0.016279
0.024388
0.020334
0.012225
0.028442
0.036551
0.032497
0.036551
0.032497
0.028442
0.012225
-0.052646
-0.226985
-0.563500
-0.835144
-0.964885
-0.839199
-0.608098
-0.376997
-0.206713
-0.081026
0.012225
0.040606
0.048714
0.056823
0.064932
0.073041
0.085204
0.073041
0.068986
0.068986
0.073041
0.073041
0.077095
0.081150
0.077095
0.077095
0.081150
0.085204
0.085204
0.089258
0.105476
0.109530
0.117639
0.125748
0.133857
0.150074
0.162237
0.166292
0.174401
0.178455
0.178455
0.178455
0.174401
0.162237
0.154129
0.125748
0.105476
0.085204
0.073041
0.056823
0.040606
0.032497
0.016279
0.012225
0.004116
0.000062
-0.016156
-0.016156
-0.012102
-0.016156
-0.016156
-0.012102
-0.008047
-0.008047
0.004116
0.016279
0.020334
0.024388
0.028442
0.040606
0.040606
0.044660
0.060878
0.060878
0.056823
0.052769
0.048714
0.048714
0.044660
0.028442
0.020334
0.016279
0.008170
0.000062
-0.008047
0.004116
0.008170
0.008170
0.016279
0.020334
0.032497
0.024388
0.028442
0.028442
0.032497
0.032497
0.036551
0.036551
0.032497
0.044660
0.036551
0.028442
0.012225
0.004116
-0.003993
0.000062
-0.008047
-0.008047
0.004116
0.004116
0.000062
0.008170
0.016279
0.016279
0.020334
0.016279
0.016279
0.016279
0.008170
0.008170
0.016279
0.008170
0.008170
0.008170
0.012225
0.008170
0.004116
0.000062
-0.012102
-0.003993
-0.003993
0.004116
0.008170
0.000062
-0.072918
-0.202658
-0.494575
-0.774328
-0.916232
-0.867579
-0.656751
-0.437813
-0.251311
-0.133734
-0.032374
0.012225
0.024388
0.036551
0.040606
0.040606
0.036551
0.044660
0.044660
0.048714
0.056823
0.048714
0.052769
0.068986
0.073041
0.085204
0.093313
0.093313
0.093313
0.081150
0.085204
0.089258
0.089258
0.081150
0.085204
0.089258
0.101422
0.121693
0.125748
0.133857
0.133857
0.137911
0.150074
0.146020
0.141965
0.133857
0.121693
0.101422
0.077095
0.060878
0.032497
0.024388
0.016279
0.000062
-0.012102
-0.020210
-0.032374
-0.024265
-0.003993
-0.008047
0.000062
0.016279
0.020334
0.024388
0.024388
0.032497
0.016279
0.032497
0.044660
0.032497
0.032497
0.028442
0.028442
0.024388
0.020334
0.016279
0.012225
0.016279
0.028442
0.024388
0.028442
0.040606
0.032497
0.024388
0.016279
0.020334
0.020334
0.020334
0.016279
0.004116
0.012225
0.004116
0.000062
-0.008047
-0.003993
0.000062
0.000062
0.008170
0.008170
0.012225
0.008170
-0.003993
-0.003993
-0.008047
-0.008047
-0.003993
-0.003993
0.000062
0.004116
-0.003993
-0.003993
0.000062
-0.003993
0.004116
0.008170
0.004116
-0.008047
-0.012102
-0.012102
-0.008047
0.000062
-0.003993
-0.003993
0.000062
0.004116
0.016279
0.016279
0.016279
0.004116
0.016279
0.008170
0.020334
0.008170
0.012225
0.008170
0.004116
0.016279
0.012225
0.000062
-0.052646
-0.137788
-0.421596
-0.693240
-0.855416
-0.818927
-0.628370
-0.393215
-0.222930
-0.113462
-0.012102
0.024388
0.020334
0.036551
0.044660
0.052769
0.064932
0.064932
0.064932
0.068986
0.073041
0.073041
0.077095
0.077095
0.081150
0.081150
0.089258
0.085204
0.085204
0.089258
0.081150
0.093313
0.089258
0.097367
0.101422
0.113585
0.125748
0.141965
0.154129
0.158183
0.174401
0.178455
0.174401
0.162237
0.158183
0.129802
0.105476
0.093313
0.077095
0.056823
0.036551
0.028442
0.032497
0.016279
0.000062
-0.012102
-0.020210
-0.024265
-0.024265
-0.028319
-0.032374
-0.028319
-0.016156
-0.012102
-0.003993
-0.008047
0.004116
0.000062
0.004116
0.008170
0.012225
0.016279
0.024388
0.032497
0.028442
0.032497
0.028442
0.020334
0.016279
0.008170
0.008170
0.000062
0.004116
0.020334
0.020334
0.008170
0.016279
0.016279
0.012225
0.020334
0.012225
0.016279
0.008170
0.016279
0.024388
0.024388
0.020334
0.016279
0.012225
0.012225
-0.003993
-0.012102
-0.012102
-0.003993
-0.008047
-0.003993
0.008170
0.004116
0.004116
0.008170
0.012225
0.004116
0.012225
0.016279
0.016279
0.004116
0.000062
-0.003993
-0.003993
-0.003993
-0.003993
0.000062
-0.008047
0.000062
0.000062
0.004116
0.008170
0.020334
0.016279
0.016279
0.008170
0.008170
0.004116
0.012225
0.012225
0.008170
0.008170
0.008170
0.012225
0.016279
0.020334
0.016279
0.020334
0.016279
0.016279
0.020334
0.028442
0.028442
0.020334
0.004116
0.008170
-0.003993
-0.003993
0.000062
-0.056700
-0.214821
-0.543228
-0.818927
-0.956776
-0.867579
-0.652696
-0.405378
-0.222930
-0.101298
-0.016156
0.032497
0.044660
0.068986
0.068986
0.064932
0.073041
0.073041
0.085204
0.085204
0.081150
0.068986
0.073041
0.073041
0.077095
0.073041
0.081150
0.089258
0.105476
0.101422
0.097367
0.085204
0.089258
0.093313
0.109530
0.117639
0.133857
0.141965
0.154129
0.162237
0.158183
0.158183
0.170346
0.162237
0.154129
0.146020
0.129802
0.109530
0.093313
0.056823
0.036551
0.020334
0.008170
-0.003993
-0.012102
-0.016156
-0.024265
-0.024265
-0.016156
-0.016156
-0.012102
-0.003993
0.004116
0.000062
0.020334
0.020334
0.036551
0.020334
0.004116
0.012225
0.000062
0.004116
0.008170
0.016279
0.008170
0.020334
0.028442
0.024388
0.024388
0.032497
0.032497
0.032497
0.032497
0.024388
0.020334
0.028442
0.024388
0.004116
0.000062
0.000062
-0.003993
0.000062
-0.003993
-0.003993
0.000062
-0.003993
0.004116
0.000062
0.004116
0.008170
0.008170
0.016279
0.016279
0.012225
-0.008047
-0.008047
-0.008047
0.000062
0.000062
0.004116
0.016279
0.016279
0.020334
0.012225
0.008170
0.004116
0.008170
0.008170
0.004116
-0.003993
-0.003993
-0.008047
-0.012102
-0.016156
-0.008047
-0.003993
-0.012102
0.000062
0.008170
0.016279
0.012225
0.020334
0.016279
0.012225
0.004116
0.004116
0.000062
-0.012102
-0.008047
0.000062
0.000062
0.000062
0.004116
0.008170
0.008170
0.008170
0.008170
0.000062
0.000062
0.004116
0.012225
0.008170
0.016279
0.016279
0.016279
0.012225
0.000062
0.004116
0.008170
0.008170
0.008170
0.004116
0.000062
0.008170
0.008170
0.008170
0.012225
0.020334
0.016279
0.016279
0.020334
0.024388
0.012225
0.012225
-0.003993
-0.064809
-0.255365
-0.547282
-0.802709
-0.895960
-0.774328
-0.571608
-0.344562
-0.194550
-0.072918
0.000062
0.032497
0.040606
0.044660
0.052769
0.056823
0.056823
0.056823
0.060878
0.060878
0.073041
0.081150
0.085204
0.085204
0.085204
0.085204
0.089258
0.089258
0.093313
0.089258
0.089258
0.085204
0.093313
0.097367
0.097367
0.105476
0.105476
0.113585
0.125748
0.150074
0.158183
0.162237
0.162237
0.154129
0.146020
0.137911
0.121693
0.109530
0.093313
0.077095
0.052769
0.044660
0.036551
0.032497
0.016279
0.012225
0.004116
0.008170
-0.003993
-0.008047
-0.003993
-0.003993
0.004116
0.004116
0.012225
0.020334
0.024388
0.020334
0.028442
0.028442
0.028442
0.036551
0.020334
0.020334
0.012225
0.012225
0.012225
0.016279
0.016279
0.016279
0.020334
0.008170
0.004116
0.020334
0.016279
0.020334
0.024388
0.028442
0.024388
0.012225
0.012225
0.016279
0.004116
0.008170
0.004116
0.012225
0.008170
0.012225
0.020334
0.008170
0.004116
0.008170
0.008170
0.004116
0.004116
0.008170
0.004116
0.000062
-0.012102
-0.012102
-0.008047
-0.008047
0.004116
-0.016156
-0.085081
-0.279692
-0.571608
-0.802709
-0.895960
-0.758111
-0.543228
-0.324290
-0.174278
-0.052646
0.008170
0.020334
0.028442
0.036551
0.044660
0.048714
0.052769
0.052769
0.060878
0.068986
0.068986
0.085204
0.077095
0.077095
0.077095
0.068986
0.068986
0.073041
0.073041
0.081150
0.089258
0.097367
0.093313
0.101422
0.101422
0.121693
0.125748
0.141965
0.154129
0.166292
0.166292
0.174401
0.178455
0.166292
0.162237
0.146020
0.125748
0.101422
0.073041
0.052769
0.048714
0.028442
0.020334
0.028442
0.020334
0.020334
0.004116
0.004116
-0.003993
0.000062
0.012225
0.020334
0.024388
0.024388
0.028442
0.032497
0.032497
0.040606
0.040606
0.044660
0.036551
0.044660
0.028442
0.032497
0.020334
0.016279
0.016279
0.012225
0.012225
0.024388
0.024388
0.032497
0.036551
0.024388
0.028442
0.032497
0.028442
0.036551
0.044660
0.032497
0.012225
0.012225
0.012225
0.016279
0.008170
0.020334
0.012225
0.020334
0.020334
0.020334
0.020334
0.020334
0.016279
0.008170
0.008170
0.012225
-0.003993
0.004116
0.004116
0.012225
0.012225
0.012225
0.012225
0.012225
0.020334
0.016279
0.016279
0.020334
0.020334
0.024388
0.024388
0.012225
-0.003993
-0.003993
0.008170
0.004116
0.020334
0.000062
-0.064809
-0.271583
-0.587826
-0.831090
-0.912178
-0.758111
-0.531064
-0.308073
-0.170223
-0.048591
0.024388
0.040606
0.048714
0.048714
0.056823
0.048714
0.052769
0.052769
0.056823
0.056823
0.064932
0.060878
0.073041
0.068986
0.081150
0.089258
0.093313
0.089258
0.089258
0.101422
0.121693
0.133857
0.121693
0.121693
0.121693
0.133857
0.150074
0.158183
0.166292
0.166292
0.170346
0.162237
0.158183
0.141965
0.125748
0.109530
0.081150
0.056823
0.040606
0.024388
0.016279
-0.003993
-0.016156
-0.024265
-0.028319
-0.020210
-0.012102
-0.016156
-0.008047
-0.008047
0.000062
0.004116
0.012225
0.008170
0.020334
0.024388
0.024388
0.012225
0.008170
0.012225
0.024388
0.012225
0.012225
0.016279
0.012225
0.016279
0.020334
0.028442
0.024388
0.028442
0.032497
0.044660
0.028442
0.016279
0.000062
-0.003993
0.000062
-0.003993
0.000062
-0.008047
0.008170
0.008170
0.020334
0.020334
0.020334
0.012225
0.028442
0.020334
0.004116
-0.008047
0.000062
0.004116
-0.003993
0.000062
0.000062
0.000062
-0.008047
0.000062
-0.008047
0.000062
0.000062
0.004116
0.004116
0.008170
0.004116
0.000062
-0.008047
-0.012102
-0.012102
-0.016156
-0.020210
-0.020210
-0.003993
-0.012102
-0.008047
-0.003993
0.000062
-0.008047
-0.020210
-0.016156
-0.016156
-0.008047
0.016279
0.016279
0.016279
0.016279
0.016279
0.016279
0.016279
0.004116
-0.003993
0.008170
0.000062
0.000062
-0.003993
-0.008047
0.012225
0.008170
0.004116
0.012225
0.016279
0.028442
0.000062
-0.064809
-0.283746
-0.579717
-0.810818
-0.887851
-0.758111
-0.539173
-0.328345
-0.198604
-0.085081
0.000062
0.024388
0.036551
0.052769
0.056823
0.064932
0.073041
0.077095
0.068986
0.064932
0.060878
0.064932
0.056823
0.064932
0.060878
0.068986
0.081150
0.073041
0.077095
0.077095
0.077095
0.089258
0.097367
0.101422
0.105476
0.105476
0.113585
0.129802
0.137911
0.137911
0.146020
0.154129
0.150074
0.146020
0.141965
0.121693
0.109530
0.077095
0.056823
0.044660
0.028442
0.012225
0.000062
-0.003993
-0.016156
-0.008047
0.000062
-0.003993
0.004116
-0.003993
0.000062
0.000062
0.008170
-0.003993
-0.003993
0.000062
0.000062
0.008170
0.008170
0.016279
0.020334
0.024388
0.016279
0.024388
0.040606
0.040606
0.048714
0.036551
0.036551
0.032497
0.028442
0.024388
0.020334
0.020334
0.020334
0.016279
0.012225
0.016279
0.012225
0.016279
0.020334
0.016279
0.012225
0.012225
0.008170
0.008170
0.012225
0.020334
0.020334
0.020334
0.016279
0.008170
0.004116
-0.003993
-0.008047
0.000062
-0.012102
-0.012102
-0.028319
-0.016156
-0.012102
-0.016156
0.000062
-0.008047
0.000062
0.004116
0.004116
0.008170
0.004116
0.008170
0.008170
0.012225
0.008170
-0.008047
-0.008047
-0.016156
-0.016156
-0.016156
-0.020210
-0.003993
0.000062
-0.003993
-0.008047
-0.008047
0.000062
0.004116
0.012225
0.012225
0.012225
0.016279
0.012225
0.012225
0.000062
0.004116
-0.008047
-0.003993
-0.008047
-0.012102
0.000062
-0.008047
-0.003993
0.004116
0.000062
0.012225
0.016279
0.000062
0.004116
0.000062
0.004116
0.016279
0.012225
-0.036428
-0.154006
-0.470249
-0.766220
-0.944613
-0.904069
-0.705404
-0.470249
-0.275637
-0.145897
-0.040482
0.008170
0.024388
0.044660
0.052769
0.060878
0.073041
0.073041
0.073041
0.068986
0.064932
0.060878
0.073041
0.068986
0.056823
0.048714
0.048714
0.056823
0.048714
0.056823
0.064932
0.073041
0.089258
0.097367
0.117639
0.121693
0.133857
0.146020
0.166292
0.166292
0.162237
0.158183
0.162237
0.146020
0.141965
0.125748
0.109530
0.097367
0.064932
0.044660
0.032497
0.012225
0.008170
0.000062
-0.003993
-0.003993
-0.008047
-0.003993
-0.008047
-0.020210
-0.016156
-0.016156
-0.016156
-0.020210
-0.003993
0.004116
0.004116
-0.003993
0.008170
-0.003993
0.008170
0.008170
0.012225
0.008170
0.008170
0.000062
0.004116
0.004116
0.004116
0.000062
0.008170
0.008170
0.008170
0.008170
0.008170
0.012225
0.020334
0.024388
0.024388
0.012225
0.004116
0.000062
-0.008047
-0.003993
-0.008047
0.000062
0.000062
0.000062
-0.003993
-0.012102
-0.008047
-0.003993
0.000062
0.008170
0.000062
-0.008047
0.000062
-0.003993
-0.008047
-0.003993
0.004116
0.004116
0.012225
0.016279
0.020334
0.008170
0.008170
0.008170
0.008170
0.012225
0.012225
0.000062
0.004116
-0.003993
-0.008047
0.004116
-0.003993
-0.008047
0.000062
0.004116
0.016279
0.036551
0.028442
0.032497
0.040606
0.024388
0.024388
0.020334
0.020334
0.028442
0.028442
0.020334
0.020334
0.024388
0.024388
0.028442
0.024388
0.020334
0.020334
0.016279
0.020334
0.012225
0.024388
0.028442
0.020334
0.012225
0.004116
0.008170
0.024388
0.028442
0.024388
0.036551
0.024388
0.020334
0.012225
0.012225
0.004116
0.000062
0.004116
0.012225
0.008170
0.016279
0.016279
0.020334
0.032497
0.028442
0.008170
0.008170
0.008170
0.008170
0.012225
0.004116
-0.008047
-0.003993
-0.008047
-0.008047
-0.008047
-0.008047
0.000062
0.000062
0.012225
0.004116
0.020334
0.020334
0.024388
0.016279
0.008170
0.000062
-0.016156
-0.016156
-0.012102
-0.012102
-0.016156
-0.008047
-0.008047
-0.020210
-0.016156
0.000062
0.008170
0.008170
0.016279
0.028442
0.032497
0.028442
0.024388
0.028442
0.024388
-0.020210
-0.117516
-0.389161
-0.685132
-0.883797
-0.904069
-0.725676
-0.514847
-0.299964
-0.166169
-0.044537
-0.003993
0.028442
0.052769
0.064932
0.068986
0.077095
0.077095
0.085204
0.093313
0.085204
0.064932
0.052769
0.056823
0.052769
0.056823
0.073041
0.077095
0.081150
0.073041
0.085204
0.089258
0.089258
0.109530
0.121693
0.121693
0.121693
0.137911
0.125748
0.133857
0.125748
0.129802
0.137911
0.137911
0.137911
0.125748
0.117639
0.109530
0.097367
0.081150
0.060878
0.048714
0.040606
0.032497
0.012225
0.012225
0.000062
-0.012102
-0.016156
-0.012102
0.004116
0.000062
0.012225
0.008170
0.012225
0.012225
0.004116
-0.012102
-0.008047
0.000062
0.004116
0.008170
0.004116
0.000062
0.012225
0.016279
0.020334
0.016279
0.024388
0.032497
0.032497
0.040606
0.048714
0.052769
0.048714
0.040606
0.036551
0.028442
0.008170
-0.003993
-0.008047
-0.008047
-0.008047
-0.020210
-0.003993
-0.003993
0.000062
0.004116
0.016279
0.016279
0.024388
0.024388
0.028442
0.020334
0.020334
0.008170
0.020334
0.016279
0.004116
0.004116
0.004116
0.004116
0.008170
0.004116
0.000062
0.000062
-0.003993
-0.056700
-0.137788
-0.381052
-0.656751
-0.851362
-0.839199
-0.656751
-0.429705
-0.247257
-0.129679
-0.008047
0.044660
0.052769
0.056823
0.048714
0.052769
0.056823
0.052769
0.052769
0.056823
0.052769
0.052769
0.044660
0.052769
0.052769
0.068986
0.068986
0.073041
0.077095
0.089258
0.093313
0.101422
0.101422
0.109530
0.117639
0.109530
0.121693
0.129802
0.146020
0.154129
0.158183
0.166292
0.166292
0.158183
0.150074
0.133857
0.113585
0.105476
0.093313
0.073041
0.048714
0.040606
0.020334
0.020334
0.012225
0.008170
0.004116
-0.008047
-0.003993
-0.003993
-0.003993
-0.016156
-0.008047
-0.012102
-0.003993
0.000062
0.004116
0.012225
0.016279
0.008170
0.028442
0.024388
0.032497
0.028442
0.040606
0.048714
0.040606
0.032497
0.032497
0.028442
0.020334
0.008170
0.000062
-0.003993
0.004116
0.012225
0.020334
0.016279
0.020334
0.020334
0.020334
0.028442
0.028442
0.020334
0.024388
0.020334
0.012225
0.004116
0.000062
0.000062
-0.003993
-0.016156
-0.016156
-0.016156
-0.008047
0.016279
0.020334
0.028442
0.028442
0.024388
0.024388
0.024388
0.028442
0.024388
0.024388
0.032497
0.024388
0.008170
0.008170
0.004116
-0.012102
-0.024265
-0.012102
-0.012102
-0.008047
-0.008047
-0.012102
0.000062
0.000062
0.004116
0.004116
0.004116
-0.048591
-0.174278
-0.482412
-0.766220
-0.912178
-0.855416
-0.656751
-0.433759
-0.247257
-0.129679
-0.024265
0.024388
0.028442
0.044660
0.056823
0.064932
0.064932
0.056823
0.064932
0.064932
0.073041
0.068986
0.077095
0.089258
0.085204
0.089258
0.093313
0.093313
0.093313
0.093313
0.089258
0.101422
0.117639
0.121693
0.113585
0.121693
0.141965
0.150074
0.162237
0.166292
0.174401
0.174401
0.170346
0.170346
0.170346
0.154129
0.137911
0.113585
0.077095
0.052769
0.040606
0.032497
0.020334
0.004116
-0.008047
-0.008047
-0.024265
-0.008047
-0.016156
-0.012102
-0.008047
-0.008047
-0.008047
0.004116
0.008170
0.004116
0.008170
0.000062
0.004116
0.008170
0.016279
0.012225
0.016279
0.012225
0.028442
0.028442
0.024388
0.024388
0.012225
0.008170
0.012225
0.008170
0.020334
0.028442
0.020334
0.020334
0.012225
0.004116
0.016279
-0.008047
-0.008047
0.000062
0.000062
0.008170
0.012225
0.036551
0.036551
0.036551
0.040606
0.040606
0.032497
0.020334
0.012225
0.008170
0.004116
-0.012102
-0.012102
-0.016156
-0.020210
-0.028319
-0.028319
-0.036428
-0.024265
-0.012102
-0.003993
0.000062
0.008170
0.016279
0.016279
0.016279
0.020334
0.016279
0.012225
0.008170
0.008170
0.008170
0.008170
0.000062
-0.003993
-0.008047
-0.008047
-0.008047
-0.008047
-0.016156
-0.012102
-0.008047
0.012225
0.020334
0.028442
0.028442
0.028442
0.040606
0.036551
-0.020210
-0.137788
-0.417541
-0.689186
-0.839199
-0.786492
-0.616207
-0.389161
-0.226985
-0.121570
-0.016156
0.016279
0.032497
0.044660
0.052769
0.060878
0.068986
0.068986
0.064932
0.064932
0.068986
0.060878
0.064932
0.068986
0.068986
0.064932
0.073041
0.068986
0.068986
0.068986
0.052769
0.060878
0.064932
0.060878
0.077095
0.093313
0.109530
0.125748
0.133857
0.137911
0.146020
0.146020
0.146020
0.146020
0.141965
0.133857
0.109530
0.093313
0.077095
0.052769
0.048714
0.032497
0.032497
0.028442
0.024388
0.008170
0.000062
0.000062
0.000062
-0.008047
0.000062
0.000062
0.000062
-0.003993
0.000062
0.004116
0.008170
0.016279
0.016279
0.008170
0.020334
0.028442
0.032497
0.040606
0.044660
0.036551
0.028442
0.032497
0.040606
0.032497
0.028442
0.032497
0.028442
0.032497
0.036551
0.032497
0.036551
0.036551
0.028442
0.024388
0.020334
0.024388
0.016279
0.020334
0.024388
0.020334
0.020334
0.016279
0.020334
0.020334
0.028442
0.020334
0.024388
0.024388
0.020334
0.024388
0.012225
0.012225
0.016279
0.020334
0.024388
0.024388
0.020334
0.020334
0.020334
0.024388
0.032497
0.028442
0.028442
0.036551
0.024388
0.020334
0.020334
0.016279
0.016279
0.020334
0.020334
0.016279
0.024388
0.028442
0.028442
0.024388
0.020334
0.024388
0.008170
-0.048591
-0.218876
-0.547282
-0.806764
-0.924341
-0.794600
-0.579717
-0.352671
-0.206713
-0.089135
-0.003993
0.020334
0.032497
0.044660
0.056823
0.048714
0.060878
0.077095
0.077095
0.073041
0.093313
0.093313
0.097367
0.089258
0.085204
0.085204
0.089258
0.089258
0.089258
0.073041
0.073041
0.068986
0.077095
0.085204
0.101422
0.117639
0.125748
0.146020
0.162237
0.162237
0.166292
0.166292
0.170346
0.178455
0.166292
0.158183
0.121693
0.101422
0.089258
0.056823
0.040606
0.024388
0.000062
-0.016156
-0.032374
-0.028319
-0.028319
-0.052646
-0.044537
-0.040482
-0.040482
-0.036428
-0.016156
-0.008047
0.000062
0.008170
0.012225
0.012225
0.016279
0.008170
0.016279
0.016279
0.016279
0.000062
0.000062
0.004116
0.008170
0.000062
0.000062
0.008170
0.004116
0.016279
0.020334
0.016279
0.020334
0.020334
0.024388
0.028442
0.024388
0.012225
0.000062
-0.003993
-0.016156
-0.003993
-0.008047
-0.008047
-0.016156
-0.012102
-0.008047
