-0.012102
0.000062
-0.003993
0.000062
0.004116
0.000062
0.008170
0.016279
0.004116
-0.003993
-0.003993
0.024388
0.052769
0.060878
-0.072918
-0.295909
-0.117516
-0.032374
0.008170
0.032497
0.060878
0.032497
0.040606
0.044660
0.028442
0.028442
0.020334
0.020334
0.040606
0.032497
0.044660
0.028442
0.028442
0.044660
0.032497
0.028442
0.036551
0.028442
0.036551
0.032497
0.036551
0.036551
0.020334
0.028442
0.024388
0.012225
0.012225
-0.016156
-0.012102
-0.028319
-0.048591
-0.024265
-0.044537
-0.040482
-0.028319
-0.012102
-0.016156
-0.008047
0.008170
-0.008047
0.004116
0.004116
-0.012102
-0.003993
0.008170
-0.003993
0.012225
0.016279
0.012225
0.008170
0.008170
0.004116
0.004116
0.000062
-0.003993
0.000062
0.004116
0.000062
-0.003993
0.004116
0.008170
0.004116
0.008170
0.004116
-0.003993
0.000062
0.016279
-0.008047
-0.003993
-0.012102
-0.003993
-0.012102
-0.003993
-0.003993
0.000062
0.000062
-0.008047
0.008170
0.000062
0.004116
0.008170
0.004116
0.004116
-0.003993
0.012225
0.004116
0.000062
0.004116
-0.008047
-0.003993
0.008170
0.012225
-0.008047
-0.003993
0.008170
-0.003993
-0.008047
-0.003993
0.004116
0.016279
0.016279
-0.024265
-0.032374
-0.024265
-0.036428
-0.028319
-0.012102
-0.003993
0.012225
0.008170
0.008170
0.008170
0.020334
-0.003993
0.000062
0.008170
0.008170
0.008170
0.012225
0.012225
0.004116
0.008170
0.032497
0.068986
-0.008047
-0.304018
-0.190495
-0.085081
-0.003993
0.036551
0.060878
0.036551
0.040606
0.048714
0.040606
0.044660
0.036551
0.040606
0.052769
0.044660
0.044660
0.032497
0.028442
0.028442
0.032497
0.056823
0.032497
0.028442
0.036551
0.028442
0.032497
0.032497
0.028442
0.044660
0.024388
0.008170
0.008170
-0.012102
-0.012102
-0.024265
-0.036428
-0.024265
-0.040482
-0.048591
-0.040482
-0.024265
-0.016156
-0.016156
-0.003993
-0.003993
-0.020210
-0.012102
-0.008047
0.000062
0.000062
-0.003993
0.004116
0.000062
0.000062
0.000062
-0.008047
0.000062
0.004116
0.012225
0.004116
-0.003993
0.004116
0.008170
0.004116
0.008170
0.008170
0.008170
0.000062
0.000062
0.000062
-0.012102
-0.012102
0.000062
0.000062
-0.003993
0.000062
0.004116
-0.016156
-0.012102
-0.020210
-0.012102
-0.012102
0.008170
0.000062
-0.003993
0.000062
-0.003993
-0.003993
0.004116
0.000062
0.000062
0.004116
0.000062
0.000062
0.000062
-0.003993
0.000062
-0.003993
-0.003993
0.000062
0.012225
0.012225
0.008170
0.000062
-0.012102
0.008170
0.000062
-0.036428
-0.048591
-0.036428
-0.040482
-0.024265
-0.012102
-0.008047
0.004116
0.000062
-0.003993
-0.003993
-0.003993
-0.003993
0.004116
0.012225
0.004116
0.012225
0.008170
0.004116
0.008170
0.016279
0.036551
0.064932
-0.068863
-0.308073
-0.166169
-0.085081
0.004116
0.036551
0.060878
0.056823
0.048714
0.044660
0.044660
0.044660
0.032497
0.028442
0.044660
0.040606
0.040606
0.032497
0.040606
0.028442
0.028442
0.048714
0.048714
0.032497
0.044660
0.036551
0.044660
0.032497
0.024388
0.028442
0.020334
0.016279
0.008170
-0.012102
-0.016156
-0.040482
-0.032374
-0.044537
-0.044537
-0.036428
-0.028319
-0.028319
-0.008047
-0.016156
-0.008047
-0.008047
0.000062
0.000062
-0.012102
-0.003993
0.016279
-0.008047
-0.012102
-0.003993
-0.012102
-0.008047
-0.003993
0.004116
0.004116
0.004116
0.004116
0.008170
0.008170
-0.003993
0.004116
0.012225
0.004116
0.004116
0.004116
0.000062
0.000062
-0.012102
-0.003993
-0.003993
-0.003993
-0.003993
-0.008047
0.000062
-0.003993
-0.003993
-0.003993
0.000062
-0.003993
-0.003993
-0.012102
-0.008047
-0.003993
-0.003993
0.008170
-0.020210
0.004116
0.004116
-0.003993
-0.003993
-0.008047
-0.012102
-0.012102
0.000062
-0.003993
0.000062
0.004116
-0.003993
0.000062
0.004116
0.000062
0.000062
-0.003993
0.016279
0.020334
0.000062
-0.028319
-0.044537
-0.044537
-0.028319
-0.024265
-0.020210
-0.024265
-0.012102
-0.012102
-0.012102
-0.003993
0.008170
-0.003993
0.000062
0.008170
0.004116
0.008170
0.004116
-0.012102
0.004116
0.032497
0.056823
0.044660
-0.247257
-0.231039
-0.121570
-0.036428
0.024388
0.052769
0.032497
0.040606
0.048714
0.036551
0.052769
0.052769
0.024388
0.040606
0.032497
0.040606
0.040606
0.040606
0.060878
0.048714
0.024388
0.040606
0.028442
0.040606
0.040606
0.032497
0.040606
0.036551
0.032497
0.020334
0.024388
0.020334
-0.008047
-0.016156
-0.012102
-0.036428
-0.032374
-0.044537
-0.044537
-0.036428
-0.024265
-0.020210
-0.020210
-0.016156
-0.012102
-0.012102
0.000062
0.004116
0.000062
0.000062
-0.008047
0.008170
0.004116
0.000062
-0.003993
0.008170
-0.016156
0.008170
0.012225
0.008170
-0.003993
0.004116
0.004116
0.008170
0.000062
0.004116
0.000062
0.000062
0.000062
-0.008047
0.004116
-0.003993
0.004116
0.004116
0.004116
-0.003993
-0.008047
0.000062
0.004116
-0.008047
-0.003993
-0.020210
0.000062
-0.008047
-0.012102
0.004116
0.000062
-0.003993
-0.008047
-0.003993
-0.020210
-0.016156
-0.008047
-0.016156
-0.003993
-0.003993
0.000062
-0.028319
-0.003993
-0.003993
-0.003993
-0.008047
0.004116
0.004116
0.012225
0.024388
-0.016156
-0.028319
-0.044537
-0.036428
-0.036428
-0.028319
-0.008047
-0.016156
-0.016156
0.008170
-0.008047
0.000062
0.000062
0.000062
0.004116
0.004116
0.012225
0.004116
0.000062
0.000062
0.016279
0.040606
0.056823
0.048714
-0.202658
-0.239148
-0.044537
-0.003993
0.012225
0.052769
0.060878
0.020334
0.040606
0.040606
0.044660
0.048714
0.028442
0.040606
0.036551
0.048714
0.044660
0.032497
0.044660
0.044660
0.028442
0.048714
0.020334
0.032497
0.028442
0.028442
0.036551
0.024388
0.016279
0.028442
0.008170
0.000062
-0.012102
-0.024265
-0.036428
-0.048591
-0.040482
-0.036428
-0.044537
-0.028319
-0.028319
-0.020210
-0.024265
-0.008047
0.008170
0.012225
-0.003993
-0.024265
0.000062
-0.016156
0.004116
-0.003993
0.000062
0.004116
0.008170
0.004116
0.008170
0.008170
0.000062
0.008170
0.004116
0.004116
-0.012102
-0.008047
0.016279
0.000062
0.000062
-0.016156
0.004116
-0.008047
-0.003993
-0.012102
0.000062
0.000062
-0.016156
-0.003993
-0.016156
-0.003993
-0.016156
-0.008047
-0.003993
-0.003993
0.004116
0.004116
-0.003993
-0.003993
0.000062
-0.003993
-0.008047
-0.020210
0.008170
0.004116
0.000062
-0.003993
-0.003993
0.000062
0.008170
0.008170
-0.003993
-0.003993
-0.008047
-0.008047
-0.003993
0.012225
0.008170
0.000062
0.020334
-0.020210
-0.028319
-0.028319
-0.028319
-0.036428
-0.012102
-0.003993
-0.003993
-0.008047
0.004116
-0.008047
0.000062
0.004116
0.016279
0.000062
0.012225
0.012225
0.008170
0.008170
0.012225
0.016279
0.028442
0.056823
0.060878
-0.109407
-0.283746
-0.105353
-0.052646
0.008170
0.048714
0.044660
0.036551
0.040606
0.036551
0.020334
0.036551
0.028442
0.036551
0.036551
0.020334
0.036551
0.032497
0.024388
0.032497
0.020334
0.044660
0.036551
0.044660
0.044660
0.036551
0.032497
0.024388
0.016279
0.016279
0.012225
0.012225
-0.016156
-0.012102
-0.016156
-0.024265
-0.036428
-0.048591
-0.048591
-0.036428
-0.044537
-0.028319
-0.016156
-0.003993
0.000062
0.000062
-0.003993
0.012225
-0.008047
0.000062
0.008170
0.000062
0.004116
0.008170
0.008170
-0.008047
-0.008047
-0.008047
0.008170
0.008170
0.008170
0.000062
0.004116
0.008170
0.016279
0.008170
0.000062
0.000062
0.004116
-0.003993
0.004116
0.000062
-0.003993
0.012225
0.000062
-0.003993
-0.003993
-0.003993
-0.003993
0.004116
0.000062
0.000062
-0.003993
0.000062
-0.008047
-0.008047
-0.003993
-0.003993
0.000062
0.008170
0.008170
-0.012102
0.004116
-0.008047
-0.008047
0.000062
-0.012102
0.000062
-0.012102
-0.012102
0.004116
0.004116
0.008170
-0.012102
-0.003993
-0.008047
-0.003993
0.000062
0.016279
0.020334
-0.016156
-0.028319
-0.032374
-0.036428
-0.032374
-0.020210
-0.012102
-0.016156
-0.008047
0.000062
-0.008047
0.008170
0.004116
0.004116
0.004116
-0.003993
0.008170
0.008170
0.012225
0.008170
0.016279
0.024388
0.044660
0.073041
-0.117516
-0.304018
-0.166169
-0.085081
0.004116
0.040606
0.060878
0.044660
0.036551
0.032497
0.036551
0.040606
0.028442
0.036551
0.040606
0.052769
0.044660
0.016279
0.036551
0.044660
0.048714
0.044660
0.040606
0.044660
0.044660
0.036551
0.044660
0.036551
0.028442
0.028442
0.016279
0.004116
0.004116
-0.024265
-0.003993
-0.036428
-0.032374
-0.044537
-0.048591
-0.036428
-0.044537
-0.020210
-0.016156
-0.016156
-0.008047
0.000062
0.000062
0.016279
-0.020210
0.000062
0.016279
0.012225
0.000062
0.008170
0.004116
0.020334
0.012225
0.000062
0.008170
0.004116
0.004116
0.008170
0.012225
-0.003993
0.016279
0.012225
0.000062
0.008170
0.000062
-0.012102
0.000062
0.008170
0.004116
-0.003993
-0.003993
0.012225
0.004116
-0.008047
-0.008047
-0.008047
-0.003993
-0.003993
0.000062
-0.003993
0.000062
0.000062
0.000062
-0.003993
-0.003993
0.004116
0.012225
-0.008047
-0.003993
-0.008047
0.004116
0.000062
0.004116
-0.012102
-0.020210
-0.008047
-0.003993
-0.016156
-0.020210
-0.012102
-0.012102
-0.008047
-0.012102
-0.003993
-0.008047
0.000062
-0.003993
0.000062
0.000062
0.020334
0.020334
-0.008047
-0.028319
-0.036428
-0.024265
-0.048591
-0.020210
-0.008047
-0.003993
-0.003993
-0.003993
0.004116
0.000062
0.004116
0.016279
0.004116
0.012225
0.020334
0.016279
0.008170
0.016279
0.016279
0.020334
0.048714
0.056823
-0.020210
-0.308073
-0.206713
-0.121570
-0.008047
0.032497
0.060878
0.036551
0.052769
0.052769
0.036551
0.044660
0.036551
0.024388
0.048714
0.028442
0.040606
0.036551
0.044660
0.036551
0.020334
0.028442
0.036551
0.036551
0.044660
0.032497
0.028442
0.032497
0.024388
0.028442
0.016279
0.016279
0.012225
-0.024265
-0.020210
-0.020210
-0.036428
-0.044537
-0.044537
-0.032374
-0.040482
-0.028319
-0.016156
-0.012102
-0.012102
-0.012102
-0.003993
0.004116
0.000062
0.000062
-0.003993
-0.008047
0.004116
0.008170
0.012225
-0.003993
0.012225
0.008170
0.008170
0.000062
0.004116
0.004116
0.008170
0.012225
0.012225
0.012225
0.012225
0.024388
0.000062
0.004116
0.008170
0.016279
-0.003993
-0.003993
-0.003993
0.000062
-0.003993
0.016279
0.008170
-0.008047
-0.008047
-0.003993
-0.008047
-0.008047
0.000062
0.008170
0.000062
0.008170
0.000062
-0.008047
0.000062
0.000062
0.000062
-0.003993
-0.012102
-0.003993
0.004116
0.012225
0.004116
0.004116
-0.003993
0.008170
0.012225
0.012225
-0.003993
-0.003993
0.000062
-0.003993
0.000062
0.000062
-0.012102
0.008170
0.004116
0.016279
0.020334
0.024388
-0.024265
-0.032374
-0.032374
-0.032374
-0.020210
-0.024265
-0.012102
-0.003993
-0.003993
0.000062
-0.012102
0.000062
-0.003993
0.012225
0.004116
-0.003993
0.008170
0.000062
0.004116
0.000062
0.016279
0.048714
0.064932
0.000062
-0.295909
-0.198604
-0.117516
-0.012102
0.016279
0.068986
0.036551
0.040606
0.044660
0.036551
0.048714
0.032497
0.036551
0.036551
0.032497
0.036551
0.048714
0.036551
0.032497
0.028442
0.040606
0.040606
0.040606
0.036551
0.024388
0.028442
0.036551
0.028442
0.028442
0.016279
0.004116
0.004116
-0.008047
0.000062
-0.032374
-0.028319
-0.032374
-0.048591
-0.040482
-0.036428
-0.032374
-0.024265
-0.012102
-0.003993
-0.003993
-0.003993
0.000062
-0.008047
0.012225
0.012225
-0.003993
0.004116
0.004116
0.004116
0.000062
-0.003993
0.004116
0.012225
0.020334
0.020334
0.008170
0.004116
0.012225
0.012225
0.000062
0.012225
0.004116
0.008170
-0.003993
0.000062
0.004116
-0.003993
0.000062
0.000062
0.000062
0.004116
-0.008047
-0.003993
0.004116
0.004116
0.012225
-0.003993
0.000062
-0.008047
0.000062
-0.008047
-0.008047
0.004116
0.000062
-0.016156
-0.020210
0.000062
-0.012102
-0.008047
-0.008047
-0.012102
-0.008047
-0.003993
-0.003993
-0.008047
-0.012102
-0.016156
0.004116
0.004116
-0.008047
-0.020210
0.008170
0.016279
0.008170
0.012225
0.020334
0.004116
-0.028319
-0.040482
-0.032374
-0.040482
-0.024265
-0.008047
-0.008047
-0.016156
-0.012102
-0.016156
0.000062
0.000062
0.004116
0.004116
0.000062
0.000062
-0.003993
0.000062
0.012225
0.008170
0.016279
0.044660
0.052769
-0.028319
-0.304018
-0.129679
-0.044537
0.004116
0.016279
0.052769
0.036551
0.048714
0.044660
0.028442
0.044660
0.032497
0.024388
0.044660
0.024388
0.036551
0.056823
0.032497
0.028442
0.032497
0.040606
0.016279
0.032497
0.040606
0.024388
0.028442
0.040606
0.020334
0.016279
0.000062
0.004116
-0.012102
-0.012102
-0.016156
-0.040482
-0.036428
-0.044537
-0.060754
-0.036428
-0.036428
-0.036428
-0.032374
-0.012102
-0.016156
-0.003993
-0.012102
0.000062
-0.008047
0.000062
-0.008047
-0.012102
0.004116
0.000062
0.000062
0.012225
0.008170
0.000062
0.004116
-0.012102
0.004116
-0.012102
-0.003993
-0.003993
-0.003993
0.016279
0.004116
0.008170
0.000062
-0.003993
0.000062
0.000062
-0.008047
0.000062
-0.012102
0.000062
-0.003993
-0.012102
-0.003993
-0.003993
0.004116
0.000062
-0.003993
0.000062
-0.003993
0.000062
-0.003993
0.000062
0.008170
-0.003993
-0.008047
0.008170
-0.012102
-0.028319
-0.008047
-0.016156
-0.003993
-0.003993
-0.003993
-0.003993
-0.012102
-0.008047
-0.008047
0.000062
-0.008047
-0.003993
0.000062
-0.016156
-0.012102
0.024388
0.008170
-0.024265
-0.052646
-0.036428
-0.048591
-0.040482
-0.016156
-0.003993
-0.008047
-0.020210
-0.016156
-0.003993
0.024388
-0.008047
-0.008047
0.004116
0.004116
0.012225
0.000062
-0.003993
0.004116
0.016279
0.036551
0.044660
0.040606
-0.267529
-0.202658
-0.064809
-0.020210
0.008170
0.040606
0.036551
0.036551
0.044660
0.036551
0.036551
0.024388
0.028442
0.044660
0.040606
0.040606
0.052769
0.028442
0.040606
0.032497
0.028442
0.052769
0.032497
0.052769
0.040606
0.032497
0.044660
0.028442
0.036551
0.024388
0.012225
0.004116
-0.008047
-0.003993
-0.008047
-0.020210
-0.044537
-0.052646
-0.032374
-0.016156
-0.036428
-0.028319
-0.012102
-0.016156
-0.003993
0.000062
-0.003993
-0.008047
0.004116
0.016279
0.000062
0.000062
0.004116
0.000062
-0.003993
0.012225
0.016279
-0.003993
0.008170
0.004116
0.000062
-0.003993
-0.003993
0.004116
-0.003993
-0.008047
-0.012102
0.000062
-0.012102
-0.008047
0.012225
0.008170
0.000062
-0.012102
0.000062
-0.008047
-0.008047
0.004116
0.012225
0.000062
-0.003993
0.000062
0.004116
0.004116
0.004116
0.012225
-0.003993
-0.003993
-0.003993
0.000062
-0.008047
-0.003993
0.008170
-0.020210
-0.012102
0.004116
0.008170
0.000062
0.000062
-0.003993
-0.008047
-0.012102
-0.003993
-0.008047
0.004116
0.000062
0.008170
-0.012102
0.004116
-0.008047
0.004116
0.012225
-0.003993
-0.044537
-0.056700
-0.024265
-0.032374
-0.032374
0.000062
0.000062
-0.008047
-0.003993
-0.012102
0.000062
0.000062
-0.003993
0.016279
0.000062
-0.003993
-0.008047
-0.008047
-0.003993
0.004116
0.020334
0.056823
0.077095
-0.056700
-0.299964
-0.166169
-0.081026
0.012225
0.040606
0.077095
0.044660
0.044660
0.044660
0.040606
0.052769
0.044660
0.044660
0.036551
0.032497
0.052769
0.056823
0.032497
0.048714
0.036551
0.036551
0.036551
0.048714
0.040606
0.028442
0.036551
0.008170
0.032497
0.052769
0.020334
0.008170
0.004116
-0.008047
-0.016156
-0.028319
-0.044537
-0.048591
-0.052646
-0.032374
-0.040482
-0.044537
-0.032374
-0.020210
0.000062
-0.012102
-0.012102
-0.012102
-0.012102
-0.008047
-0.003993
0.008170
0.008170
0.000062
-0.008047
0.028442
0.000062
0.012225
0.004116
0.008170
0.004116
-0.003993
-0.003993
0.012225
0.004116
0.008170
0.000062
-0.003993
0.004116
0.008170
0.000062
-0.008047
-0.003993
-0.003993
-0.024265
0.000062
-0.003993
0.000062
0.004116
0.004116
-0.024265
0.012225
0.000062
-0.003993
0.000062
-0.012102
-0.012102
0.000062
-0.008047
-0.003993
-0.003993
0.000062
0.008170
-0.016156
-0.008047
0.000062
-0.003993
-0.016156
-0.003993
0.008170
-0.003993
0.004116
-0.012102
0.000062
-0.008047
-0.008047
-0.003993
0.000062
0.004116
-0.012102
-0.008047
-0.003993
0.008170
0.004116
0.004116
0.016279
0.004116
-0.016156
-0.048591
-0.036428
-0.024265
-0.036428
-0.020210
-0.012102
0.008170
0.004116
-0.012102
0.012225
-0.003993
0.000062
-0.012102
0.008170
0.008170
0.012225
0.012225
0.008170
-0.012102
-0.008047
0.044660
0.044660
0.040606
-0.247257
-0.271583
-0.133734
-0.024265
0.012225
0.052769
0.056823
0.048714
0.056823
0.056823
0.052769
0.048714
0.040606
0.052769
0.060878
0.052769
0.032497
0.028442
0.040606
0.024388
0.032497
0.040606
0.024388
0.052769
0.044660
0.028442
0.056823
0.064932
0.040606
0.004116
0.012225
0.000062
0.004116
-0.020210
-0.008047
-0.044537
-0.020210
-0.016156
-0.032374
-0.028319
-0.032374
-0.044537
-0.020210
-0.008047
-0.016156
-0.016156
0.012225
0.000062
0.028442
0.016279
-0.012102
0.000062
0.004116
0.012225
-0.008047
-0.024265
0.012225
-0.012102
-0.003993
0.016279
-0.012102
-0.008047
0.016279
-0.028319
0.000062
-0.008047
0.024388
0.000062
0.004116
0.016279
0.012225
0.008170
0.004116
0.020334
0.024388
-0.003993
-0.024265
-0.024265
0.012225
0.020334
0.012225
-0.020210
-0.003993
-0.003993
-0.003993
0.000062
0.020334
0.008170
-0.008047
-0.020210
-0.008047
-0.012102
0.000062
0.028442
-0.012102
-0.003993
-0.020210
-0.003993
0.000062
0.004116
-0.008047
0.004116
0.000062
-0.008047
-0.008047
-0.008047
-0.008047
-0.012102
-0.003993
0.004116
0.008170
0.016279
0.028442
0.008170
-0.032374
-0.036428
-0.020210
-0.024265
-0.024265
0.016279
0.016279
-0.020210
-0.008047
0.000062
0.004116
0.008170
0.012225
0.008170
0.004116
0.004116
0.020334
0.012225
-0.012102
0.000062
0.020334
0.040606
0.060878
0.064932
-0.226985
-0.235093
-0.089135
-0.052646
0.008170
0.036551
0.044660
0.032497
0.052769
0.036551
0.040606
0.056823
0.028442
0.044660
0.052769
0.036551
0.052769
0.052769
0.044660
0.032497
0.028442
0.048714
0.036551
0.044660
0.052769
0.036551
0.040606
0.016279
0.036551
0.044660
0.028442
0.020334
-0.016156
-0.012102
-0.024265
-0.048591
-0.044537
-0.040482
-0.044537
-0.032374
-0.028319
-0.024265
-0.012102
-0.012102
-0.008047
0.004116
-0.016156
-0.008047
-0.012102
-0.012102
0.008170
-0.008047
-0.012102
0.008170
0.004116
0.008170
0.024388
0.024388
0.008170
0.008170
0.020334
0.004116
0.032497
0.008170
0.012225
0.004116
0.008170
0.000062
0.000062
-0.003993
0.000062
-0.008047
0.000062
-0.008047
-0.008047
-0.012102
-0.012102
0.008170
0.020334
0.008170
0.000062
-0.016156
-0.003993
-0.020210
-0.003993
0.000062
-0.012102
-0.016156
-0.016156
-0.012102
-0.016156
-0.008047
-0.016156
-0.012102
-0.020210
0.008170
0.004116
0.004116
-0.024265
-0.016156
-0.008047
-0.008047
0.000062
-0.003993
-0.008047
0.004116
0.000062
0.012225
0.012225
-0.008047
-0.024265
-0.040482
-0.028319
-0.048591
-0.040482
-0.016156
-0.020210
0.000062
0.000062
-0.008047
-0.008047
0.000062
-0.008047
0.008170
0.008170
0.020334
0.008170
-0.008047
0.008170
0.024388
0.020334
0.044660
0.040606
0.052769
-0.226985
-0.226985
-0.048591
-0.020210
0.004116
0.056823
0.056823
0.024388
0.044660
0.032497
0.032497
0.040606
0.040606
0.048714
0.032497
0.028442
0.052769
0.040606
0.028442
0.028442
0.020334
0.032497
0.016279
0.036551
0.032497
0.020334
0.028442
0.016279
0.020334
0.016279
0.012225
0.004116
-0.008047
-0.012102
-0.016156
-0.032374
-0.048591
-0.048591
-0.036428
-0.028319
-0.028319
-0.036428
-0.032374
-0.024265
-0.008047
-0.020210
-0.003993
0.004116
-0.003993
0.000062
-0.012102
-0.020210
0.004116
0.000062
-0.003993
-0.016156
0.004116
0.004116
-0.003993
0.016279
0.004116
-0.003993
-0.003993
0.012225
-0.003993
-0.012102
-0.012102
0.000062
-0.012102
0.000062
-0.003993
-0.012102
-0.003993
-0.028319
-0.008047
-0.003993
-0.008047
-0.016156
-0.020210
-0.016156
-0.012102
-0.008047
-0.020210
-0.012102
-0.008047
-0.020210
-0.016156
-0.020210
-0.012102
-0.003993
-0.008047
-0.036428
-0.016156
-0.016156
-0.003993
-0.012102
-0.008047
-0.008047
-0.003993
-0.008047
-0.003993
-0.012102
0.000062
-0.003993
-0.016156
-0.008047
0.008170
0.012225
0.004116
0.008170
-0.016156
-0.048591
-0.036428
-0.044537
-0.036428
-0.016156
-0.008047
-0.008047
0.000062
0.004116
0.004116
0.008170
0.016279
0.012225
0.008170
0.000062
0.000062
0.008170
0.004116
-0.008047
0.004116
0.024388
0.044660
0.073041
-0.093190
-0.287801
-0.117516
-0.036428
0.008170
0.052769
0.060878
0.044660
0.056823
0.044660
0.024388
0.036551
0.036551
0.028442
0.040606
0.036551
0.044660
0.032497
0.036551
0.036551
0.024388
0.040606
0.040606
0.040606
0.040606
0.024388
0.044660
0.040606
0.020334
0.024388
0.012225
0.012225
0.008170
0.000062
-0.016156
-0.028319
-0.028319
-0.040482
-0.032374
-0.044537
-0.032374
-0.020210
-0.020210
-0.012102
-0.008047
-0.008047
0.004116
0.000062
-0.020210
0.004116
-0.008047
-0.003993
0.004116
0.012225
0.004116
0.004116
0.004116
0.012225
0.000062
-0.008047
0.000062
0.012225
0.012225
0.000062
0.016279
0.016279
0.000062
-0.008047
0.012225
0.004116
0.004116
0.012225
-0.003993
0.000062
0.000062
-0.008047
-0.003993
0.004116
0.008170
-0.012102
-0.003993
0.004116
0.008170
-0.003993
-0.012102
0.012225
0.004116
-0.012102
-0.008047
-0.003993
-0.003993
0.000062
-0.003993
0.000062
-0.012102
0.000062
0.000062
0.000062
-0.003993
-0.012102
-0.003993
-0.003993
0.000062
0.008170
0.004116
0.008170
-0.008047
-0.003993
-0.008047
-0.003993
0.012225
0.020334
-0.016156
-0.044537
-0.044537
-0.036428
-0.040482
-0.020210
-0.008047
-0.012102
-0.016156
-0.008047
0.008170
0.008170
0.000062
0.000062
0.004116
0.016279
0.004116
0.000062
0.012225
0.000062
0.004116
0.028442
0.032497
0.064932
-0.113462
-0.312127
-0.174278
-0.081026
0.000062
0.040606
0.068986
0.032497
0.048714
0.048714
0.048714
0.044660
0.036551
0.044660
0.032497
0.032497
0.052769
0.040606
0.044660
0.048714
0.040606
0.040606
0.044660
0.040606
0.044660
0.036551
0.048714
0.036551
0.020334
0.048714
0.028442
0.020334
0.012225
0.012225
-0.008047
-0.020210
-0.036428
-0.036428
-0.044537
-0.036428
-0.036428
-0.028319
-0.028319
-0.024265
-0.008047
-0.012102
-0.008047
0.000062
0.004116
-0.008047
-0.003993
-0.008047
-0.003993
0.000062
0.004116
-0.012102
-0.003993
0.000062
0.004116
0.004116
-0.003993
-0.008047
0.004116
-0.012102
0.008170
0.008170
0.016279
0.012225
0.008170
0.008170
0.008170
0.004116
0.004116
0.008170
-0.008047
-0.008047
-0.003993
0.000062
0.000062
-0.024265
0.000062
0.000062
0.000062
-0.003993
0.008170
0.000062
-0.003993
-0.003993
0.004116
0.000062
0.000062
-0.012102
-0.012102
-0.012102
-0.008047
0.008170
-0.028319
-0.020210
0.004116
-0.003993
-0.016156
-0.003993
-0.008047
-0.012102
-0.012102
0.000062
0.008170
-0.003993
0.000062
0.016279
0.004116
-0.032374
-0.032374
-0.036428
-0.032374
-0.028319
-0.016156
-0.008047
-0.003993
0.004116
0.004116
-0.008047
-0.003993
0.000062
-0.003993
0.000062
0.000062
0.004116
0.000062
0.000062
0.004116
0.004116
0.024388
0.036551
0.040606
-0.247257
-0.243202
-0.137788
-0.040482
0.004116
0.048714
0.052769
0.032497
0.044660
0.044660
0.044660
0.040606
0.024388
0.044660
0.032497
0.036551
0.040606
0.028442
0.044660
0.020334
0.044660
0.044660
0.048714
0.056823
0.036551
0.040606
0.052769
0.044660
0.032497
0.036551
0.028442
0.020334
0.004116
0.000062
-0.012102
-0.028319
-0.040482
-0.048591
-0.040482
-0.036428
-0.028319
-0.028319
-0.020210
-0.003993
-0.012102
0.000062
0.004116
0.008170
0.000062
0.000062
-0.003993
0.004116
0.004116
0.000062
0.004116
0.008170
0.012225
0.000062
0.020334
0.020334
0.020334
-0.003993
0.012225
0.016279
0.016279
0.012225
0.016279
0.016279
0.008170
0.012225
0.000062
0.004116
0.012225
0.016279
0.004116
-0.003993
0.004116
0.004116
-0.008047
0.004116
-0.003993
0.004116
0.020334
0.000062
0.004116
0.000062
0.004116
-0.012102
-0.008047
-0.003993
0.008170
-0.003993
-0.008047
0.000062
0.000062
0.000062
-0.003993
0.000062
-0.003993
-0.003993
0.000062
-0.003993
-0.008047
-0.012102
0.008170
-0.008047
-0.008047
0.012225
0.028442
-0.012102
-0.040482
-0.040482
-0.036428
-0.032374
-0.020210
-0.008047
0.004116
0.000062
0.000062
0.008170
0.000062
0.004116
-0.003993
0.008170
0.004116
0.008170
0.004116
0.008170
0.004116
0.004116
0.040606
0.048714
0.064932
-0.149951
-0.267529
-0.117516
-0.052646
0.004116
0.044660
0.048714
0.028442
0.040606
0.040606
0.036551
0.036551
0.024388
0.040606
0.044660
0.044660
0.044660
0.032497
0.032497
0.048714
0.028442
0.028442
0.016279
0.028442
0.036551
0.024388
0.036551
0.032497
0.024388
0.024388
0.008170
0.008170
0.000062
-0.012102
-0.028319
-0.036428
-0.048591
-0.052646
-0.056700
-0.044537
-0.028319
-0.024265
-0.028319
-0.032374
0.000062
0.000062
-0.008047
-0.008047
-0.012102
0.000062
-0.003993
-0.003993
-0.008047
-0.012102
-0.012102
0.000062
0.000062
0.000062
-0.008047
0.008170
0.012225
0.008170
0.004116
0.000062
0.012225
0.000062
0.004116
0.004116
-0.003993
0.004116
0.008170
0.004116
-0.008047
-0.012102
0.000062
0.000062
0.004116
0.000062
-0.003993
-0.012102
-0.003993
0.000062
0.004116
0.012225
-0.008047
-0.003993
0.012225
0.000062
0.000062
0.000062
0.000062
0.000062
-0.008047
-0.008047
0.000062
-0.008047
-0.003993
0.008170
-0.008047
-0.003993
0.004116
0.012225
0.000062
0.008170
0.020334
0.020334
-0.012102
-0.032374
-0.028319
-0.036428
-0.036428
-0.003993
0.000062
0.004116
0.000062
-0.012102
-0.012102
-0.008047
-0.012102
0.000062
0.012225
0.012225
-0.012102
0.012225
0.000062
0.000062
0.016279
0.048714
0.056823
0.024388
-0.275637
-0.186441
-0.048591
-0.008047
0.004116
0.040606
0.044660
0.044660
0.036551
0.032497
0.040606
0.024388
0.032497
0.052769
0.024388
0.044660
0.040606
0.036551
0.052769
0.036551
0.016279
0.036551
0.024388
0.040606
0.032497
0.028442
0.032497
0.020334
0.028442
0.028442
0.004116
-0.003993
-0.020210
-0.028319
-0.032374
-0.048591
-0.048591
-0.056700
-0.048591
-0.048591
-0.040482
-0.028319
0.020334
-0.012102
-0.008047
-0.016156
-0.016156
-0.012102
-0.024265
0.004116
-0.003993
-0.008047
-0.024265
-0.016156
0.008170
0.008170
0.004116
0.004116
0.004116
-0.003993
-0.028319
-0.016156
0.000062
0.012225
0.012225
-0.003993
0.012225
0.004116
-0.008047
0.012225
0.008170
0.000062
0.016279
-0.016156
0.008170
0.008170
-0.020210
-0.024265
-0.024265
-0.032374
-0.012102
-0.003993
-0.008047
0.004116
-0.008047
-0.012102
-0.008047
0.004116
-0.016156
0.004116
0.000062
-0.003993
-0.016156
-0.012102
-0.012102
0.000062
0.000062
-0.008047
-0.003993
0.020334
0.016279
-0.012102
-0.052646
-0.052646
-0.020210
-0.040482
-0.040482
-0.016156
0.012225
0.004116
0.000062
0.000062
0.004116
0.012225
0.008170
-0.003993
0.008170
0.012225
0.016279
0.012225
-0.003993
0.000062
0.020334
0.052769
0.064932
-0.048591
-0.291855
-0.121570
-0.028319
-0.008047
0.048714
0.064932
0.044660
0.032497
0.028442
0.036551
0.044660
0.040606
0.044660
0.048714
0.020334
0.024388
0.052769
0.020334
0.024388
0.060878
0.048714
0.028442
0.032497
0.016279
0.008170
0.004116
0.020334
0.020334
0.044660
-0.020210
0.004116
0.008170
-0.008047
-0.028319
-0.036428
-0.056700
-0.024265
-0.056700
-0.036428
-0.032374
-0.024265
-0.012102
-0.003993
-0.016156
-0.020210
-0.032374
0.000062
-0.012102
-0.016156
-0.003993
-0.008047
-0.012102
-0.003993
0.004116
0.008170
0.008170
0.008170
0.024388
0.004116
-0.003993
0.000062
0.012225
-0.008047
-0.008047
0.004116
-0.020210
-0.012102
-0.024265
0.000062
0.012225
0.004116
-0.003993
0.004116
-0.008047
-0.008047
-0.020210
-0.012102
0.000062
0.012225
0.000062
0.004116
-0.008047
-0.003993
0.016279
-0.016156
-0.032374
-0.003993
-0.016156
-0.020210
-0.003993
0.000062
-0.020210
-0.012102
-0.008047
-0.020210
-0.016156
-0.016156
-0.012102
0.008170
0.000062
-0.012102
-0.003993
-0.008047
-0.036428
-0.044537
-0.040482
-0.044537
-0.032374
-0.008047
-0.003993
-0.012102
-0.012102
0.004116
-0.003993
-0.008047
0.000062
-0.012102
0.000062
-0.003993
-0.003993
0.000062
-0.003993
0.000062
0.020334
0.044660
0.068986
-0.166169
-0.291855
-0.125625
-0.052646
-0.003993
0.032497
0.052769
0.040606
0.032497
0.028442
0.032497
0.032497
0.016279
0.020334
0.032497
0.032497
0.032497
0.028442
0.024388
0.077095
0.040606
0.028442
0.020334
0.036551
0.032497
0.040606
0.048714
0.044660
0.044660
0.048714
0.032497
0.024388
0.004116
-0.003993
-0.008047
0.004116
-0.016156
-0.048591
-0.044537
-0.032374
-0.032374
0.000062
-0.028319
-0.008047
-0.016156
-0.008047
-0.008047
0.000062
0.004116
0.004116
0.004116
0.000062
0.020334
0.008170
0.004116
0.004116
0.008170
0.012225
0.004116
0.008170
0.008170
0.012225
0.016279
0.024388
0.028442
0.024388
0.016279
0.004116
0.012225
0.020334
0.000062
0.004116
0.004116
0.004116
-0.003993
0.004116
0.004116
-0.008047
-0.003993
-0.003993
0.000062
-0.003993
0.000062
0.004116
-0.003993
0.008170
-0.003993
-0.003993
0.000062
0.004116
0.004116
0.000062
0.016279
-0.012102
-0.003993
0.008170
0.012225
0.008170
0.004116
0.024388
0.012225
-0.020210
-0.036428
-0.016156
-0.032374
-0.024265
-0.008047
-0.012102
0.020334
0.008170
-0.003993
-0.016156
-0.003993
0.004116
0.036551
0.012225
-0.016156
-0.012102
-0.003993
0.016279
-0.003993
0.032497
0.032497
0.052769
0.048714
-0.259420
-0.247257
-0.133734
-0.032374
0.040606
0.068986
0.048714
0.044660
0.052769
0.028442
0.052769
0.052769
0.028442
0.060878
0.012225
0.044660
0.056823
0.028442
0.028442
0.048714
0.064932
0.036551
0.036551
0.036551
0.056823
0.060878
0.040606
0.020334
0.028442
0.040606
0.020334
0.020334
-0.003993
-0.012102
-0.016156
-0.028319
-0.028319
-0.056700
-0.012102
-0.024265
-0.040482
-0.040482
-0.024265
-0.020210
0.000062
-0.003993
-0.008047
-0.003993
0.000062
0.008170
-0.008047
0.008170
0.000062
-0.008047
0.004116
0.004116
0.000062
0.000062
0.008170
0.020334
0.012225
0.012225
-0.008047
0.020334
0.012225
0.008170
0.004116
0.000062
0.004116
0.000062
0.020334
0.016279
0.004116
-0.003993
0.008170
0.012225
0.004116
0.004116
0.004116
0.012225
0.004116
-0.003993
0.000062
-0.003993
-0.003993
-0.012102
0.012225
0.012225
0.020334
-0.012102
0.000062
-0.008047
-0.008047
-0.012102
0.004116
0.004116
0.008170
0.020334
0.020334
-0.012102
-0.024265
-0.036428
-0.032374
-0.036428
-0.036428
-0.020210
-0.008047
-0.003993
-0.003993
0.008170
0.000062
0.012225
0.012225
-0.008047
-0.003993
0.000062
0.008170
0.008170
-0.003993
0.012225
0.020334
0.036551
0.073041
-0.081026
-0.295909
-0.158060
-0.089135
-0.012102
0.036551
0.060878
0.044660
0.048714
0.040606
0.032497
0.040606
0.036551
0.040606
0.032497
0.032497
0.032497
0.032497
0.036551
0.036551
0.032497
0.044660
0.040606
0.040606
0.048714
0.032497
0.040606
0.032497
0.028442
0.028442
0.004116
0.008170
0.000062
-0.024265
-0.020210
-0.028319
-0.052646
-0.048591
-0.056700
-0.044537
-0.040482
-0.036428
-0.036428
-0.024265
-0.016156
-0.008047
-0.003993
-0.024265
-0.020210
-0.012102
-0.008047
-0.003993
-0.008047
0.004116
0.004116
0.024388
0.008170
0.000062
-0.020210
-0.003993
0.004116
0.000062
0.000062
-0.003993
0.008170
-0.003993
-0.012102
0.004116
0.008170
0.000062
0.008170
0.012225
0.012225
0.012225
0.000062
0.000062
-0.003993
0.012225
0.004116
-0.003993
-0.008047
-0.008047
0.000062
0.000062
-0.003993
0.012225
0.008170
0.012225
0.000062
0.004116
0.004116
0.004116
0.004116
0.016279
0.024388
-0.003993
0.008170
0.024388
0.016279
0.024388
0.024388
-0.008047
-0.024265
-0.024265
-0.032374
-0.020210
-0.012102
0.000062
0.008170
0.008170
0.000062
0.004116
0.020334
0.024388
0.012225
0.004116
0.016279
0.004116
0.004116
0.008170
0.016279
0.012225
0.036551
0.052769
0.036551
-0.275637
-0.218876
-0.105353
-0.052646
0.008170
0.044660
0.048714
0.048714
0.044660
0.040606
0.032497
0.036551
0.028442
0.044660
0.032497
0.036551
0.044660
0.036551
0.044660
0.040606
0.048714
0.044660
0.020334
0.040606
0.032497
0.028442
0.036551
0.012225
0.016279
0.012225
-0.024265
-0.020210
-0.036428
-0.036428
-0.044537
-0.068863
-0.056700
-0.048591
-0.056700
-0.052646
-0.032374
-0.028319
-0.008047
-0.008047
0.000062
0.004116
0.000062
0.016279
0.008170
0.016279
-0.008047
0.000062
0.000062
0.008170
0.012225
0.012225
0.028442
0.020334
0.024388
0.040606
0.032497
0.016279
0.028442
0.020334
0.016279
0.024388
0.016279
0.008170
0.032497
0.016279
0.000062
0.028442
0.012225
0.012225
0.024388
0.012225
0.016279
0.040606
0.012225
0.020334
0.016279
0.008170
0.016279
0.024388
0.000062
0.020334
0.008170
0.008170
-0.003993
-0.003993
0.008170
0.012225
0.016279
0.004116
0.032497
0.036551
0.040606
-0.008047
-0.008047
-0.036428
-0.020210
-0.048591
-0.012102
0.012225
-0.012102
-0.012102
0.028442
-0.003993
-0.016156
0.012225
0.036551
0.000062
0.004116
-0.020210
0.004116
-0.008047
-0.003993
0.004116
0.020334
0.068986
0.028442
-0.231039
-0.226985
-0.056700
-0.016156
-0.003993
0.028442
0.052769
0.044660
0.032497
0.056823
0.036551
0.020334
0.008170
0.012225
0.028442
0.044660
0.048714
0.032497
0.036551
0.032497
0.020334
0.032497
0.032497
0.024388
0.012225
0.016279
0.028442
0.020334
0.000062
0.004116
-0.024265
-0.024265
-0.020210
-0.032374
-0.064809
-0.064809
-0.064809
-0.072918
-0.068863
-0.020210
-0.040482
-0.032374
-0.036428
-0.028319
-0.012102
-0.008047
0.000062
0.008170
0.000062
0.008170
0.004116
-0.012102
-0.012102
0.016279
0.012225
0.000062
0.016279
0.000062
0.012225
0.024388
0.004116
0.016279
0.028442
0.004116
0.020334
0.012225
0.016279
0.008170
0.012225
0.024388
0.008170
0.024388
0.000062
0.012225
0.024388
0.008170
0.004116
-0.020210
0.008170
-0.008047
0.000062
-0.008047
-0.012102
0.012225
0.020334
0.012225
0.012225
0.008170
0.012225
-0.008047
0.012225
-0.003993
0.020334
0.020334
0.028442
0.012225
-0.016156
-0.056700
-0.032374
-0.036428
-0.028319
0.024388
0.024388
-0.020210
-0.003993
-0.008047
-0.008047
0.016279
0.020334
-0.016156
0.016279
0.036551
0.012225
0.032497
0.008170
0.000062
0.008170
0.040606
0.028442
-0.024265
-0.295909
-0.194550
-0.032374
0.028442
0.012225
0.052769
0.036551
0.024388
0.024388
0.020334
0.012225
0.032497
0.000062
0.020334
-0.012102
0.004116
0.044660
0.032497
0.024388
0.028442
-0.003993
0.004116
0.036551
0.036551
0.008170
-0.008047
0.016279
0.032497
0.000062
-0.036428
-0.036428
-0.003993
-0.056700
-0.032374
-0.052646
-0.056700
-0.060754
-0.068863
-0.060754
-0.036428
-0.040482
-0.012102
-0.036428
-0.008047
-0.016156
-0.012102
0.000062
-0.016156
0.008170
0.004116
-0.008047
0.004116
-0.016156
0.008170
-0.003993
-0.003993
-0.003993
-0.008047
0.000062
0.028442
-0.003993
-0.012102
0.020334
-0.012102
-0.008047
-0.016156
-0.020210
-0.016156
-0.012102
-0.003993
0.004116
0.004116
0.000062
-0.003993
-0.008047
-0.003993
-0.016156
-0.008047
0.004116
0.004116
-0.016156
0.000062
-0.003993
0.004116
-0.008047
-0.008047
0.004116
0.012225
-0.008047
-0.016156
0.000062
-0.008047
0.000062
0.004116
0.020334
0.008170
0.008170
-0.032374
-0.032374
-0.032374
-0.052646
-0.016156
-0.008047
-0.032374
-0.024265
-0.016156
-0.016156
-0.008047
0.000062
0.004116
-0.024265
-0.003993
0.000062
0.004116
-0.008047
-0.003993
-0.008047
0.020334
0.044660
0.052769
-0.072918
-0.332399
-0.178332
-0.060754
-0.003993
0.016279
0.056823
0.036551
0.028442
0.060878
0.004116
0.016279
0.016279
0.036551
0.044660
0.020334
0.028442
0.032497
0.032497
0.040606
0.032497
0.044660
0.016279
0.028442
0.056823
0.032497
0.064932
0.036551
0.028442
0.016279
-0.008047
0.000062
-0.012102
-0.016156
-0.024265
-0.036428
-0.048591
-0.056700
-0.048591
-0.040482
-0.028319
-0.012102
-0.024265
-0.012102
0.004116
-0.003993
-0.012102
-0.016156
-0.008047
-0.003993
0.008170
-0.012102
0.004116
-0.003993
-0.008047
0.004116
-0.003993
0.000062
0.016279
0.004116
0.000062
0.012225
0.008170
0.012225
-0.003993
0.000062
0.008170
0.004116
0.004116
-0.003993
0.004116
0.004116
-0.003993
0.004116
0.008170
-0.012102
-0.003993
-0.020210
-0.024265
-0.008047
-0.012102
-0.016156
-0.003993
-0.008047
-0.016156
-0.012102
-0.008047
-0.008047
-0.020210
-0.008047
-0.008047
-0.012102
-0.003993
0.008170
0.024388
0.004116
-0.028319
-0.036428
-0.020210
-0.032374
-0.032374
-0.020210
-0.016156
0.000062
0.012225
-0.012102
-0.016156
-0.008047
0.004116
0.004116
0.004116
0.004116
-0.003993
0.008170
0.004116
0.004116
0.012225
0.036551
0.073041
0.028442
-0.263474
-0.222930
-0.113462
-0.028319
0.028442
0.081150
0.044660
0.044660
0.064932
0.032497
0.044660
0.044660
0.040606
0.040606
0.044660
0.052769
0.040606
0.028442
0.052769
0.040606
0.052769
0.044660
0.040606
0.044660
0.040606
0.044660
0.052769
0.036551
0.028442
0.020334
0.020334
0.012225
-0.016156
-0.024265
-0.028319
-0.036428
-0.044537
-0.044537
-0.044537
-0.032374
-0.028319
-0.028319
-0.028319
-0.016156
-0.003993
-0.008047
-0.012102
-0.008047
-0.012102
-0.008047
-0.003993
-0.003993
0.000062
-0.003993
0.000062
0.008170
0.004116
0.008170
0.000062
-0.008047
0.000062
0.000062
0.000062
0.004116
-0.003993
0.000062
0.000062
-0.003993
0.000062
0.008170
-0.003993
-0.003993
0.000062
0.000062
-0.003993
-0.003993
0.000062
0.000062
0.000062
0.008170
0.004116
0.008170
0.004116
0.000062
0.012225
0.012225
0.008170
0.008170
0.012225
0.004116
0.012225
0.008170
0.016279
0.032497
0.024388
-0.003993
-0.024265
-0.020210
-0.024265
-0.032374
-0.016156
0.000062
-0.008047
-0.003993
-0.003993
0.004116
0.004116
0.004116
0.000062
0.004116
0.008170
0.004116
0.004116
0.012225
0.008170
0.008170
0.048714
0.068986
0.085204
-0.170223
-0.263474
-0.113462
-0.036428
0.008170
0.052769
0.060878
0.048714
0.044660
0.040606
0.040606
0.040606
0.040606
0.044660
0.040606
0.036551
0.040606
0.040606
0.044660
0.036551
0.032497
0.048714
0.036551
0.048714
0.048714
0.032497
0.040606
0.036551
0.020334
0.020334
0.008170
0.004116
0.000062
-0.020210
-0.020210
-0.052646
-0.052646
-0.044537
-0.044537
-0.040482
-0.036428
-0.024265
-0.012102
-0.012102
0.000062
-0.012102
0.000062
-0.003993
-0.008047
-0.003993
0.000062
0.000062
-0.003993
0.004116
-0.003993
0.008170
-0.003993
0.024388
0.016279
0.004116
0.012225
0.008170
0.008170
0.016279
0.012225
0.008170
0.012225
0.008170
0.008170
0.004116
0.000062
-0.012102
0.008170
0.004116
0.000062
0.016279
0.008170
0.004116
0.008170
0.016279
0.012225
0.016279
0.016279
0.004116
0.012225
-0.012102
0.012225
0.004116
0.012225
0.004116
0.020334
0.024388
0.020334
0.036551
-0.003993
-0.024265
-0.036428
-0.024265
-0.040482
-0.020210
0.000062
0.008170
0.008170
0.012225
0.000062
0.016279
0.012225
0.008170
0.024388
0.028442
0.020334
0.016279
0.016279
0.024388
0.012225
0.036551
0.056823
0.073041
-0.064809
-0.287801
-0.121570
-0.028319
0.016279
0.040606
0.073041
0.052769
0.044660
0.048714
0.056823
0.052769
0.028442
0.028442
0.056823
0.036551
0.028442
0.032497
0.052769
0.040606
0.028442
0.036551
0.044660
0.040606
0.020334
0.032497
0.040606
0.040606
0.012225
0.016279
0.012225
0.000062
-0.024265
-0.048591
-0.020210
-0.048591
-0.068863
-0.068863
-0.036428
-0.036428
-0.048591
-0.036428
-0.016156
-0.012102
-0.012102
-0.012102
-0.008047
0.008170
-0.008047
0.004116
0.000062
-0.008047
0.008170
0.008170
0.012225
0.004116
0.012225
0.020334
0.016279
-0.003993
0.012225
0.024388
0.004116
0.000062
-0.003993
0.020334
0.008170
0.008170
0.012225
0.016279
0.008170
-0.003993
0.004116
0.000062
0.004116
0.008170
0.008170
-0.008047
0.012225
0.016279
-0.003993
-0.008047
0.020334
0.008170
-0.008047
-0.016156
0.008170
0.008170
0.000062
0.000062
0.004116
0.024388
0.012225
-0.040482
-0.052646
-0.048591
-0.032374
-0.040482
-0.020210
-0.024265
-0.003993
0.016279
-0.012102
-0.016156
0.012225
0.004116
-0.003993
-0.016156
0.012225
0.008170
-0.008047
-0.003993
-0.012102
-0.008047
0.024388
0.052769
0.036551
-0.202658
-0.255365
-0.101298
-0.024265
0.016279
0.024388
0.040606
0.032497
0.032497
0.020334
0.020334
0.024388
0.008170
0.024388
0.040606
0.008170
0.040606
0.020334
0.032497
0.012225
0.024388
0.020334
0.020334
0.032497
0.028442
0.012225
0.016279
0.008170
0.008170
0.000062
-0.024265
-0.024265
-0.040482
-0.048591
-0.064809
-0.060754
-0.072918
-0.060754
-0.081026
-0.052646
-0.044537
-0.028319
-0.020210
-0.020210
-0.016156
0.000062
0.000062
0.000062
-0.003993
0.000062
0.000062
0.008170
-0.003993
0.016279
0.000062
0.016279
0.012225
0.000062
0.004116
0.000062
0.000062
0.008170
0.016279
-0.003993
-0.003993
-0.003993
-0.003993
-0.003993
-0.016156
-0.020210
-0.008047
-0.012102
-0.016156
-0.016156
-0.016156
-0.012102
-0.012102
-0.012102
-0.012102
-0.012102
-0.020210
-0.016156
-0.012102
-0.008047
-0.012102
-0.008047
-0.003993
-0.012102
-0.012102
-0.012102
-0.012102
0.000062
0.012225
0.000062
-0.032374
-0.048591
-0.056700
-0.036428
-0.048591
-0.020210
-0.012102
-0.012102
-0.008047
0.004116
0.004116
0.004116
0.004116
0.004116
0.004116
0.016279
0.020334
0.028442
0.016279
0.016279
0.020334
0.040606
0.060878
0.077095
-0.206713
-0.235093
-0.076972
-0.020210
0.024388
0.048714
0.056823
0.048714
0.040606
0.032497
0.048714
0.032497
0.028442
0.044660
0.040606
0.036551
0.044660
0.028442
0.048714
0.032497
0.040606
0.048714
0.036551
0.040606
0.044660
0.040606
0.016279
0.020334
0.020334
0.016279
-0.003993
0.000062
-0.028319
-0.008047
-0.016156
-0.040482
-0.040482
-0.036428
-0.036428
-0.024265
-0.032374
-0.016156
-0.020210
-0.012102
-0.003993
-0.008047
0.000062
0.016279
0.000062
0.000062
0.000062
0.000062
0.012225
0.012225
0.012225
0.012225
0.012225
0.012225
0.004116
0.020334
0.000062
0.008170
0.012225
0.000062
0.004116
0.028442
0.036551
0.012225
0.012225
-0.012102
-0.008047
0.000062
-0.003993
0.000062
-0.008047
-0.003993
0.012225
0.004116
0.008170
-0.003993
0.008170
-0.016156
0.012225
0.012225
-0.008047
0.008170
-0.003993
0.004116
0.000062
-0.008047
0.020334
-0.024265
-0.036428
-0.048591
-0.048591
-0.044537
-0.032374
-0.003993
-0.008047
-0.008047
-0.016156
0.000062
-0.020210
0.004116
-0.008047
0.008170
-0.020210
0.000062
-0.016156
0.008170
0.016279
0.004116
0.020334
0.036551
0.048714
-0.044537
-0.304018
-0.170223
-0.060754
0.000062
0.016279
0.064932
0.048714
0.032497
0.020334
0.008170
0.052769
0.032497
0.016279
0.032497
0.020334
0.044660
0.016279
0.028442
0.020334
0.024388
0.024388
0.020334
0.012225
0.032497
0.004116
0.028442
0.020334
0.000062
0.000062
0.000062
-0.020210
-0.032374
-0.040482
-0.040482
-0.052646
-0.064809
-0.060754
-0.048591
-0.044537
-0.044537
-0.032374
-0.024265
-0.020210
-0.012102
0.004116
-0.008047
0.008170
-0.003993
-0.008047
0.008170
0.012225
0.004116
0.016279
0.012225
0.008170
0.008170
0.008170
0.004116
0.012225
0.012225
0.020334
0.024388
0.024388
0.016279
0.020334
0.016279
0.020334
0.016279
0.020334
0.024388
0.012225
0.016279
0.040606
0.032497
0.000062
0.028442
0.048714
0.012225
0.008170
0.020334
0.008170
-0.012102
0.004116
0.020334
0.004116
0.000062
0.032497
0.036551
0.020334
0.036551
-0.016156
-0.024265
-0.012102
0.000062
-0.016156
-0.003993
0.000062
-0.003993
0.004116
-0.003993
0.024388
0.024388
0.020334
0.024388
0.008170
0.040606
0.012225
0.004116
-0.008047
0.028442
0.044660
0.048714
0.048714
0.052769
-0.190495
-0.283746
-0.101298
-0.048591
0.024388
0.040606
0.064932
0.028442
0.032497
0.020334
0.060878
0.044660
0.044660
0.032497
0.024388
0.044660
0.048714
0.020334
0.040606
0.048714
0.044660
0.036551
0.044660
0.048714
0.036551
-0.008047
0.000062
-0.012102
0.004116
0.016279
-0.020210
-0.024265
-0.040482
-0.052646
-0.028319
-0.024265
-0.056700
-0.089135
-0.064809
-0.032374
-0.036428
-0.032374
-0.024265
-0.003993
-0.020210
0.020334
0.020334
0.020334
-0.024265
-0.020210
0.008170
-0.003993
0.032497
-0.008047
-0.020210
-0.003993
0.004116
0.024388
0.020334
0.028442
0.036551
0.060878
0.008170
0.016279
0.032497
-0.003993
-0.008047
0.016279
0.024388
0.000062
0.016279
0.044660
0.044660
0.008170
0.000062
0.020334
0.032497
0.020334
-0.003993
-0.008047
-0.032374
-0.003993
0.012225
0.040606
0.068986
0.073041
-0.052646
0.004116
-0.044537
-0.052646
-0.032374
-0.044537
-0.024265
-0.003993
-0.008047
0.008170
-0.028319
-0.032374
0.000062
0.004116
-0.040482
-0.028319
-0.003993
-0.020210
-0.024265
-0.032374
-0.012102
-0.028319
-0.020210
-0.012102
0.036551
0.044660
-0.170223
-0.291855
-0.129679
-0.081026
-0.020210
0.040606
0.004116
0.012225
0.016279
0.020334
0.016279
0.020334
0.012225
0.016279
0.016279
0.008170
-0.008047
0.000062
-0.008047
0.004116
0.024388
0.016279
0.000062
0.016279
0.020334
0.004116
0.024388
0.004116
0.012225
0.004116
-0.016156
-0.020210
-0.048591
-0.044537
-0.040482
-0.056700
-0.056700
-0.064809
-0.068863
-0.048591
-0.060754
-0.056700
-0.040482
-0.028319
-0.036428
-0.024265
-0.036428
-0.036428
-0.044537
-0.028319
-0.012102
-0.016156
-0.016156
-0.024265
-0.020210
-0.016156
-0.028319
-0.012102
-0.016156
-0.012102
-0.003993
0.000062
-0.003993
0.000062
-0.016156
-0.016156
-0.012102
-0.008047
0.000062
-0.003993
-0.008047
-0.008047
-0.003993
0.000062
-0.016156
-0.008047
-0.012102
-0.012102
-0.008047
-0.020210
-0.020210
-0.020210
-0.012102
-0.016156
0.008170
0.020334
0.000062
-0.028319
-0.036428
-0.048591
-0.048591
-0.016156
-0.003993
-0.003993
-0.008047
0.004116
-0.008047
-0.012102
0.000062
0.000062
-0.003993
0.004116
0.004116
0.008170
0.000062
0.000062
0.000062
0.016279
0.044660
0.064932
-0.076972
-0.308073
-0.178332
-0.093190
-0.008047
0.032497
0.068986
0.032497
0.044660
0.036551
0.036551
0.044660
0.040606
0.048714
0.060878
0.032497
0.036551
0.036551
0.036551
0.036551
0.044660
0.048714
0.052769
0.032497
0.048714
0.036551
0.044660
0.040606
0.056823
0.064932
0.052769
0.044660
0.032497
0.008170
0.008170
-0.016156
-0.016156
-0.008047
0.008170
0.004116
0.020334
0.008170
0.016279
0.020334
0.020334
0.020334
0.020334
0.020334
0.020334
0.016279
0.028442
0.044660
0.048714
0.036551
0.024388
0.036551
0.024388
0.024388
0.028442
0.016279
0.020334
0.036551
0.016279
0.020334
0.028442
0.032497
0.032497
0.028442
0.036551
0.020334
0.020334
0.012225
0.012225
0.004116
0.008170
0.000062
0.004116
0.012225
0.000062
0.008170
-0.003993
-0.012102
-0.016156
0.012225
0.004116
0.024388
0.020334
-0.012102
-0.032374
-0.040482
-0.032374
-0.032374
0.008170
-0.016156
-0.012102
-0.012102
-0.003993
0.000062
-0.003993
-0.008047
-0.008047
-0.003993
-0.003993
-0.003993
-0.003993
0.000062
-0.008047
-0.003993
0.036551
0.056823
0.068986
-0.194550
-0.255365
-0.125625
-0.052646
0.020334
0.048714
0.048714
0.040606
0.056823
0.044660
0.044660
0.040606
0.016279
0.032497
0.016279
0.036551
0.036551
0.032497
0.032497
0.036551
0.036551
0.048714
0.028442
0.036551
0.016279
0.020334
0.032497
0.020334
0.028442
0.020334
0.008170
0.004116
-0.012102
-0.016156
-0.024265
-0.044537
-0.036428
-0.028319
-0.028319
-0.028319
-0.032374
-0.012102
-0.012102
-0.003993
0.000062
0.004116
0.000062
-0.008047
-0.003993
0.000062
0.000062
0.004116
0.008170
0.012225
0.012225
0.012225
0.012225
0.012225
0.016279
0.012225
0.008170
0.008170
0.016279
0.020334
0.012225
0.008170
0.008170
0.000062
0.008170
0.000062
0.000062
0.004116
0.008170
0.004116
0.004116
0.000062
0.000062
0.000062
0.000062
0.000062
-0.003993
-0.003993
0.000062
0.000062
0.004116
-0.003993
-0.008047
0.004116
0.012225
0.020334
0.028442
0.004116
-0.028319
-0.028319
-0.044537
-0.040482
-0.024265
-0.008047
0.012225
0.004116
0.008170
-0.003993
-0.003993
0.000062
0.008170
0.004116
0.000062
0.004116
0.000062
0.004116
0.004116
0.000062
0.024388
0.048714
0.073041
-0.194550
-0.251311
-0.154006
-0.072918
0.004116
0.048714
0.052769
0.024388
0.040606
0.032497
0.036551
0.036551
0.036551
0.040606
0.032497
0.036551
0.040606
0.036551
0.048714
0.044660
0.036551
0.044660
0.036551
0.048714
0.048714
0.044660
0.048714
0.040606
0.036551
0.036551
0.024388
0.012225
-0.003993
0.000062
-0.012102
-0.020210
-0.024265
-0.032374
-0.028319
-0.024265
-0.020210
-0.016156
-0.003993
-0.012102
0.000062
-0.024265
0.000062
-0.008047
-0.008047
-0.003993
-0.003993
-0.003993
-0.003993
0.004116
0.000062
0.000062
0.004116
0.000062
0.004116
0.000062
0.000062
-0.003993
0.000062
0.016279
0.000062
-0.003993
-0.008047
-0.008047
-0.008047
-0.012102
-0.008047
-0.012102
-0.008047
-0.003993
-0.008047
-0.012102
-0.003993
0.000062
0.000062
-0.008047
0.000062
-0.008047
-0.003993
-0.003993
-0.012102
-0.008047
-0.012102
-0.012102
-0.003993
0.000062
0.004116
0.020334
0.008170
-0.024265
-0.040482
-0.032374
-0.036428
-0.032374
-0.012102
-0.020210
-0.012102
-0.008047
-0.008047
0.000062
0.000062
-0.003993
0.000062
0.004116
0.000062
-0.003993
0.000062
-0.003993
-0.008047
0.008170
0.036551
0.073041
-0.008047
-0.291855
-0.186441
-0.109407
-0.016156
0.020334
0.056823
0.036551
0.036551
0.032497
0.020334
0.040606
0.032497
0.024388
0.028442
0.028442
0.036551
0.036551
0.040606
0.044660
0.032497
0.040606
0.044660
0.032497
0.040606
0.036551
0.036551
0.040606
0.028442
0.036551
0.024388
0.016279
0.016279
-0.003993
0.008170
-0.016156
-0.024265
-0.028319
-0.032374
-0.028319
-0.024265
-0.024265
-0.008047
-0.008047
0.000062
-0.003993
-0.003993
0.000062
0.008170
0.004116
0.000062
-0.003993
0.004116
0.000062
0.000062
0.008170
0.000062
0.016279
0.000062
-0.003993
0.000062
0.004116
0.008170
0.000062
0.004116
0.000062
-0.003993
0.000062
0.004116
-0.003993
0.000062
-0.008047
-0.003993
-0.003993
-0.003993
-0.003993
-0.003993
-0.008047
-0.008047
-0.008047
-0.003993
-0.008047
-0.012102
-0.012102
-0.003993
-0.003993
-0.003993
-0.003993
0.000062
0.000062
-0.008047
0.004116
0.004116
0.020334
0.020334
-0.003993
-0.032374
-0.032374
-0.028319
-0.032374
-0.008047
-0.012102
-0.003993
-0.008047
-0.008047
-0.008047
0.000062
-0.003993
-0.003993
-0.008047
-0.003993
-0.012102
-0.012102
-0.008047
-0.003993
0.004116
0.028442
0.056823
0.016279
-0.283746
-0.170223
-0.101298
-0.028319
0.012225
0.048714
0.032497
0.032497
0.036551
0.020334
0.032497
0.032497
0.032497
0.040606
0.020334
0.028442
0.032497
0.036551
0.044660
0.028442
0.032497
0.048714
0.040606
0.048714
0.036551
0.036551
0.032497
0.020334
0.028442
0.008170
0.012225
0.000062
-0.016156
-0.012102
-0.024265
-0.032374
-0.028319
-0.032374
-0.024265
-0.024265
-0.028319
-0.008047
-0.016156
-0.012102
-0.008047
-0.016156
0.000062
-0.003993
-0.008047
0.000062
-0.003993
0.000062
0.004116
0.004116
0.004116
0.000062
0.000062
0.000062
0.004116
0.008170
0.016279
0.000062
0.008170
0.004116
0.008170
0.004116
0.000062
0.000062
-0.012102
-0.003993
-0.008047
-0.003993
-0.008047
0.004116
0.000062
-0.003993
-0.003993
-0.003993
-0.008047
0.000062
-0.003993
0.000062
-0.003993
0.000062
0.000062
0.000062
0.000062
0.000062
-0.008047
-0.003993
0.004116
0.012225
0.020334
0.004116
-0.020210
-0.024265
-0.024265
-0.028319
-0.012102
-0.003993
-0.012102
-0.008047
-0.008047
-0.003993
-0.008047
-0.008047
-0.008047
-0.003993
-0.012102
-0.012102
-0.008047
-0.003993
-0.003993
0.000062
0.024388
0.056823
0.056823
-0.231039
-0.198604
-0.109407
-0.044537
0.000062
0.040606
0.048714
0.032497
0.040606
0.028442
0.032497
0.036551
0.032497
0.040606
0.032497
0.032497
0.040606
0.028442
0.044660
0.032497
0.032497
0.044660
0.036551
0.040606
0.036551
0.032497
0.032497
0.024388
0.028442
0.020334
0.008170
0.004116
-0.016156
-0.012102
-0.024265
-0.036428
-0.036428
-0.040482
-0.028319
-0.020210
-0.024265
-0.012102
-0.003993
0.004116
0.000062
0.000062
0.008170
0.004116
0.004116
0.008170
0.000062
0.008170
0.012225
0.012225
0.008170
0.004116
0.004116
0.012225
0.004116
0.012225
0.008170
0.004116
0.008170
0.004116
0.000062
0.000062
0.008170
0.004116
-0.003993
0.004116
0.000062
0.000062
0.004116
0.000062
-0.003993
-0.003993
-0.003993
-0.003993
-0.008047
-0.003993
-0.003993
-0.003993
-0.003993
0.000062
0.000062
0.004116
0.004116
0.000062
0.004116
0.012225
0.016279
0.028442
-0.003993
-0.028319
-0.028319
-0.036428
-0.040482
-0.020210
-0.008047
-0.003993
0.000062
0.004116
0.000062
0.004116
0.000062
-0.003993
0.004116
0.004116
0.008170
0.004116
0.000062
0.004116
0.008170
0.036551
0.064932
0.032497
-0.271583
-0.174278
-0.097244
-0.032374
0.016279
0.052769
0.032497
0.036551
0.040606
0.020334
0.028442
0.028442
0.024388
0.032497
0.028442
0.028442
0.024388
0.020334
0.036551
0.024388
0.020334
0.028442
0.028442
0.036551
0.028442
0.028442
0.032497
0.016279
0.024388
0.012225
0.008170
0.000062
-0.020210
-0.012102
-0.028319
-0.032374
-0.024265
-0.040482
-0.032374
-0.024265
-0.020210
-0.008047
-0.003993
0.000062
0.000062
0.000062
0.004116
0.008170
0.008170
0.000062
0.004116
0.004116
0.004116
0.008170
0.004116
0.008170
0.004116
0.012225
0.008170
0.008170
0.008170
0.008170
-0.003993
0.000062
0.000062
-0.003993
-0.003993
0.000062
-0.008047
-0.008047
-0.008047
-0.003993
-0.003993
-0.003993
-0.003993
0.000062
0.000062
0.004116
0.000062
0.000062
-0.008047
-0.008047
-0.003993
-0.008047
-0.008047
-0.016156
-0.003993
-0.008047
-0.008047
0.004116
0.004116
0.016279
0.016279
-0.003993
-0.024265
-0.040482
-0.036428
-0.044537
-0.024265
-0.008047
-0.003993
-0.008047
-0.003993
-0.003993
-0.003993
-0.003993
0.000062
0.004116
0.004116
0.008170
0.000062
0.004116
-0.003993
0.012225
0.044660
0.056823
0.036551
-0.271583
-0.182386
-0.076972
-0.036428
0.008170
0.048714
0.032497
0.024388
0.044660
0.020334
0.032497
0.028442
0.024388
0.040606
0.024388
0.024388
0.028442
0.020334
0.028442
0.024388
0.024388
0.028442
0.024388
0.036551
0.028442
0.024388
0.036551
0.028442
0.024388
0.016279
0.004116
0.004116
-0.016156
-0.016156
-0.020210
-0.036428
-0.028319
-0.028319
-0.032374
-0.024265
-0.024265
-0.012102
-0.012102
0.000062
0.008170
0.004116
0.012225
0.008170
0.000062
0.012225
0.008170
0.016279
0.012225
0.020334
0.016279
0.012225
0.008170
0.012225
0.016279
0.012225
0.012225
0.004116
0.004116
0.000062
0.000062
0.000062
-0.003993
0.000062
0.000062
-0.003993
-0.003993
-0.003993
-0.008047
-0.008047
0.000062
-0.003993
0.004116
0.000062
-0.003993
-0.008047
-0.008047
-0.003993
-0.008047
-0.003993
-0.008047
-0.008047
-0.003993
0.000062
0.004116
0.020334
0.016279
-0.024265
-0.036428
-0.032374
-0.040482
-0.028319
-0.016156
-0.016156
-0.012102
-0.012102
-0.012102
-0.012102
-0.003993
-0.003993
-0.003993
0.000062
0.004116
0.000062
-0.003993
-0.003993
0.004116
0.020334
0.048714
0.060878
-0.113462
-0.255365
-0.121570
-0.085081
0.000062
0.028442
0.044660
0.036551
0.040606
0.036551
0.024388
0.032497
0.028442
0.032497
0.032497
0.028442
0.036551
0.028442
0.036551
0.036551
0.032497
0.036551
0.028442
0.032497
0.028442
0.024388
0.036551
0.028442
0.024388
0.016279
0.004116
0.004116
0.000062
-0.020210
-0.016156
-0.036428
-0.028319
-0.028319
-0.028319
-0.020210
-0.016156
-0.012102
-0.008047
-0.003993
0.004116
0.000062
-0.003993
0.000062
0.004116
0.004116
0.000062
0.008170
0.008170
0.004116
0.012225
0.004116
0.004116
0.012225
0.000062
0.000062
0.008170
0.000062
0.000062
0.000062
0.000062
0.000062
0.000062
0.004116
0.000062
-0.008047
0.004116
-0.003993
0.000062
0.000062
0.000062
0.000062
0.000062
0.008170
0.004116
0.004116
0.000062
-0.012102
0.000062
-0.008047
-0.012102
-0.008047
-0.003993
0.004116
0.004116
0.008170
0.016279
-0.012102
-0.036428
-0.040482
-0.032374
-0.048591
-0.024265
-0.012102
-0.008047
-0.008047
-0.008047
-0.008047
0.000062
0.000062
0.000062
0.004116
0.004116
0.012225
0.004116
0.004116
0.000062
0.012225
0.044660
0.064932
-0.016156
-0.275637
-0.141842
-0.093190
-0.016156
0.024388
0.056823
0.028442
0.036551
0.044660
0.028442
0.044660
0.036551
0.032497
0.036551
0.036551
0.044660
0.036551
0.032497
0.036551
0.032497
0.040606
0.032497
0.028442
0.032497
0.020334
0.020334
0.020334
0.016279
0.012225
0.008170
-0.003993
-0.003993
-0.016156
-0.012102
-0.024265
-0.036428
-0.024265
-0.032374
-0.024265
-0.016156
-0.020210
-0.003993
-0.008047
0.000062
0.000062
0.004116
0.008170
0.008170
0.008170
0.008170
0.008170
0.016279
0.008170
0.008170
0.004116
0.004116
0.008170
0.008170
0.004116
0.008170
0.008170
0.008170
0.004116
0.000062
0.000062
0.004116
0.000062
-0.003993
0.004116
-0.003993
-0.008047
0.000062
-0.003993
0.000062
-0.003993
-0.012102
-0.012102
-0.008047
-0.012102
-0.003993
0.000062
-0.008047
-0.003993
-0.008047
0.000062
0.000062
-0.003993
-0.003993
-0.008047
0.000062
-0.003993
-0.008047
-0.008047
-0.003993
-0.008047
0.008170
0.008170
0.016279
0.024388
-0.003993
-0.036428
-0.036428
-0.036428
-0.048591
-0.024265
-0.016156
-0.008047
-0.008047
-0.008047
-0.003993
-0.003993
-0.008047
-0.003993
0.008170
0.008170
0.004116
0.004116
0.004116
0.008170
0.024388
0.056823
0.073041
-0.064809
-0.259420
-0.109407
-0.064809
-0.003993
0.028442
0.056823
0.040606
0.044660
0.040606
0.028442
0.040606
0.032497
0.036551
0.044660
0.032497
0.040606
0.036551
0.040606
0.032497
0.032497
0.048714
0.036551
0.036551
0.032497
0.036551
0.036551
0.028442
0.016279
0.024388
0.000062
-0.003993
-0.003993
-0.016156
-0.012102
-0.024265
-0.032374
-0.028319
-0.036428
-0.020210
-0.016156
-0.020210
-0.016156
-0.008047
-0.003993
-0.003993
0.000062
0.008170
0.004116
0.008170
0.004116
0.012225
0.016279
0.012225
0.020334
0.016279
0.012225
0.008170
0.004116
0.008170
0.004116
0.016279
0.008170
0.004116
-0.003993
0.000062
0.000062
0.008170
0.004116
0.000062
0.000062
-0.003993
0.008170
0.004116
-0.003993
-0.003993
0.000062
-0.008047
0.000062
0.008170
0.008170
0.000062
-0.003993
-0.003993
0.000062
-0.003993
-0.008047
-0.016156
-0.003993
0.000062
-0.003993
-0.003993
-0.008047
-0.008047
0.000062
-0.008047
-0.003993
-0.008047
-0.008047
0.004116
0.020334
0.016279
0.024388
-0.012102
-0.036428
-0.044537
-0.036428
-0.048591
-0.028319
-0.012102
0.000062
-0.008047
0.004116
0.004116
0.000062
0.004116
0.016279
0.000062
-0.003993
-0.008047
0.000062
0.008170
0.000062
0.016279
0.052769
0.064932
-0.003993
-0.295909
-0.125625
-0.016156
0.000062
0.032497
0.060878
0.048714
0.040606
0.048714
0.028442
0.040606
0.032497
0.028442
0.044660
0.028442
0.040606
0.032497
0.044660
0.044660
0.024388
0.036551
0.032497
0.016279
0.032497
0.016279
0.024388
0.032497
0.016279
0.008170
0.000062
-0.008047
0.004116
-0.028319
-0.036428
-0.040482
-0.064809
-0.052646
-0.056700
-0.040482
-0.040482
-0.040482
-0.024265
-0.020210
-0.008047
-0.008047
0.000062
-0.003993
0.004116
0.004116
0.008170
-0.003993
0.004116
0.004116
0.000062
0.004116
-0.003993
0.004116
0.008170
0.012225
0.020334
0.008170
0.012225
0.004116
0.000062
-0.008047
0.000062
0.000062
-0.003993
-0.003993
0.000062
-0.008047
-0.008047
-0.008047
-0.008047
-0.003993
0.000062
0.000062
-0.003993
0.000062
-0.003993
0.008170
-0.003993
-0.012102
-0.008047
-0.012102
-0.012102
-0.003993
-0.003993
-0.008047
-0.012102
-0.016156
-0.008047
-0.020210
-0.012102
-0.016156
-0.012102
-0.016156
-0.012102
0.000062
0.000062
0.012225
-0.003993
-0.036428
-0.048591
-0.040482
-0.048591
-0.036428
-0.020210
-0.003993
-0.012102
-0.012102
-0.008047
-0.012102
-0.003993
0.000062
0.000062
0.000062
-0.003993
0.000062
0.000062
-0.012102
0.000062
0.020334
0.040606
0.048714
-0.109407
-0.299964
-0.109407
-0.040482
0.000062
0.024388
0.048714
0.028442
0.036551
0.032497
0.032497
0.040606
0.028442
0.028442
0.028442
0.020334
0.028442
0.020334
0.024388
0.028442
0.028442
0.032497
0.024388
0.024388
0.032497
0.028442
0.032497
0.020334
0.020334
0.016279
0.004116
-0.003993
-0.008047
-0.024265
-0.028319
-0.044537
-0.044537
-0.044537
-0.044537
-0.032374
-0.028319
-0.024265
-0.003993
-0.012102
0.000062
0.000062
-0.003993
0.000062
-0.008047
0.004116
0.000062
0.008170
0.016279
0.012225
0.012225
0.012225
0.016279
0.016279
0.012225
0.008170
0.004116
0.008170
0.008170
0.012225
0.004116
0.004116
0.008170
0.008170
0.012225
0.004116
0.008170
0.008170
0.004116
0.008170
0.004116
-0.003993
-0.003993
-0.012102
-0.003993
-0.003993
-0.003993
-0.008047
-0.003993
0.000062
0.000062
-0.003993
-0.008047
-0.012102
-0.012102
-0.012102
-0.016156
-0.016156
-0.012102
-0.012102
-0.012102
-0.008047
0.000062
-0.003993
-0.008047
0.004116
0.000062
0.000062
0.004116
0.020334
0.024388
0.000062
-0.028319
-0.032374
-0.032374
-0.036428
-0.020210
-0.008047
0.000062
0.000062
0.000062
0.004116
0.004116
0.008170
0.004116
0.012225
0.000062
0.008170
0.008170
0.008170
0.004116
0.008170
0.024388
0.052769
0.077095
-0.052646
-0.304018
-0.166169
-0.089135
0.008170
0.040606
0.064932
0.052769
0.048714
0.056823
0.048714
0.052769
0.040606
0.044660
0.044660
0.036551
0.052769
0.044660
0.044660
0.044660
0.036551
0.044660
0.040606
0.036551
0.048714
0.036551
0.040606
0.032497
0.024388
0.024388
0.016279
0.008170
0.000062
-0.012102
-0.016156
-0.024265
-0.032374
-0.032374
-0.040482
-0.028319
-0.020210
-0.016156
-0.012102
-0.012102
-0.003993
-0.003993
-0.003993
-0.008047
-0.012102
0.000062
-0.003993
-0.003993
0.004116
0.004116
0.004116
0.000062
0.004116
0.012225
0.008170
0.012225
0.008170
0.000062
0.000062
0.008170
0.012225
0.004116
0.004116
0.004116
0.000062
-0.003993
0.000062
0.000062
0.004116
0.000062
0.000062
-0.008047
-0.012102
-0.016156
-0.008047
-0.008047
0.004116
0.000062
-0.003993
-0.003993
-0.003993
0.004116
0.004116
-0.003993
-0.003993
0.000062
-0.008047
-0.003993
-0.003993
0.000062
0.000062
-0.003993
-0.003993
0.000062
0.000062
-0.012102
-0.008047
0.000062
-0.003993
-0.008047
0.000062
0.012225
0.028442
-0.008047
-0.032374
-0.040482
-0.036428
-0.044537
-0.020210
-0.016156
-0.008047
-0.012102
-0.008047
-0.008047
0.000062
0.000062
0.000062
0.004116
0.004116
-0.003993
-0.003993
-0.003993
0.004116
-0.003993
0.012225
0.044660
0.060878
-0.056700
-0.320236
-0.194550
-0.109407
-0.008047
0.024388
0.060878
0.032497
0.040606
0.040606
0.036551
0.040606
0.032497
0.040606
0.040606
0.024388
0.040606
0.040606
0.032497
0.044660
0.036551
0.040606
0.036551
0.036551
0.040606
0.040606
0.032497
0.032497
0.028442
0.032497
0.024388
0.020334
0.012225
-0.008047
-0.003993
-0.024265
-0.028319
-0.028319
-0.048591
-0.036428
-0.028319
-0.024265
-0.016156
-0.012102
-0.008047
0.000062
0.000062
0.008170
0.000062
0.004116
0.004116
0.004116
0.004116
0.008170
0.008170
0.012225
0.012225
0.008170
0.012225
0.012225
0.004116
0.004116
0.016279
0.012225
0.004116
0.004116
0.004116
0.000062
0.004116
0.004116
0.008170
0.004116
0.000062
0.000062
0.004116
0.000062
0.000062
-0.003993
0.000062
-0.003993
0.000062
0.000062
0.000062
0.000062
0.000062
0.000062
0.000062
0.004116
0.004116
0.000062
0.008170
0.004116
-0.003993
-0.003993
-0.003993
0.000062
0.004116
0.000062
0.000062
0.008170
0.000062
0.004116
0.000062
-0.003993
0.004116
0.008170
0.000062
0.008170
0.008170
0.020334
0.020334
-0.016156
-0.040482
-0.036428
-0.028319
-0.032374
-0.016156
-0.012102
-0.003993
-0.003993
0.000062
-0.003993
0.000062
0.008170
0.008170
0.004116
0.004116
0.008170
0.004116
0.008170
0.000062
0.012225
0.024388
0.048714
0.068986
-0.113462
-0.287801
-0.162114
-0.089135
0.004116
0.044660
0.060878
0.040606
0.048714
0.044660
0.044660
0.044660
0.032497
0.036551
0.036551
0.036551
0.048714
0.032497
0.040606
0.040606
0.036551
0.044660
0.044660
0.040606
0.040606
0.032497
0.036551
0.032497
0.028442
0.028442
0.012225
0.000062
-0.008047
-0.020210
-0.016156
-0.036428
-0.040482
-0.036428
-0.036428
-0.032374
-0.028319
-0.020210
-0.016156
-0.020210
-0.008047
-0.008047
0.000062
-0.003993
-0.008047
-0.003993
-0.003993
0.004116
0.000062
0.000062
0.004116
0.000062
0.004116
-0.003993
-0.008047
-0.003993
-0.003993
0.000062
-0.003993
0.000062
-0.003993
0.004116
0.012225
0.000062
-0.003993
-0.012102
-0.008047
-0.008047
-0.008047
-0.003993
-0.008047
-0.003993
0.000062
-0.003993
-0.003993
0.004116
-0.003993
-0.003993
0.000062
-0.003993
-0.003993
-0.008047
0.004116
-0.008047
-0.003993
-0.003993
-0.003993
-0.008047
-0.003993
0.000062
0.000062
0.000062
-0.003993
0.000062
-0.003993
-0.003993
-0.012102
-0.003993
-0.008047
-0.003993
-0.003993
-0.008047
-0.008047
0.000062
0.004116
0.012225
0.024388
-0.008047
-0.032374
-0.040482
-0.036428
-0.044537
-0.028319
-0.016156
-0.016156
-0.012102
-0.003993
-0.008047
-0.003993
0.000062
0.000062
0.008170
0.004116
0.008170
0.004116
0.000062
-0.003993
0.000062
0.016279
0.052769
0.060878
-0.028319
-0.299964
-0.174278
-0.101298
-0.008047
0.032497
0.060878
0.040606
0.044660
0.044660
0.032497
0.040606
0.052769
0.036551
0.044660
0.032497
0.044660
0.032497
0.028442
0.040606
0.028442
0.036551
0.032497
0.028442
0.032497
0.028442
0.028442
0.032497
0.024388
0.020334
0.016279
0.016279
0.008170
0.000062
-0.008047
-0.020210
-0.024265
-0.024265
-0.032374
-0.024265
-0.032374
-0.032374
-0.012102
-0.016156
-0.003993
0.000062
-0.003993
0.008170
0.004116
0.004116
0.012225
0.008170
0.012225
0.016279
0.012225
0.020334
0.008170
0.016279
0.016279
0.012225
0.020334
0.012225
0.016279
0.008170
0.012225
0.016279
0.008170
0.012225
0.008170
0.008170
0.000062
0.000062
0.008170
0.000062
0.004116
-0.003993
0.004116
0.000062
0.004116
0.000062
0.004116
0.000062
0.004116
0.004116
0.000062
-0.003993
0.000062
-0.003993
0.000062
-0.003993
0.008170
0.008170
0.000062
0.004116
-0.003993
0.008170
0.000062
0.000062
-0.003993
-0.012102
-0.003993
-0.008047
-0.008047
-0.003993
0.004116
0.012225
0.028442
0.008170
-0.024265
-0.036428
-0.028319
-0.032374
-0.016156
-0.003993
0.004116
-0.003993
-0.003993
-0.003993
-0.003993
0.000062
0.004116
0.004116
0.012225
0.012225
0.008170
0.004116
-0.003993
0.000062
0.012225
0.040606
0.048714
0.032497
-0.267529
-0.190495
-0.044537
-0.028319
0.000062
0.040606
0.040606
0.032497
0.040606
0.028442
0.028442
0.032497
0.028442
0.036551
0.020334
0.032497
0.036551
0.024388
0.028442
0.020334
0.024388
0.024388
0.020334
0.032497
0.016279
0.020334
0.032497
0.016279
0.016279
0.004116
-0.008047
-0.012102
-0.028319
-0.036428
-0.044537
-0.052646
-0.052646
-0.056700
-0.044537
-0.028319
-0.028319
-0.020210
-0.024265
-0.012102
0.000062
-0.008047
-0.003993
0.000062
-0.003993
0.000062
0.004116
0.000062
0.004116
0.004116
0.016279
-0.003993
0.008170
0.012225
0.000062
0.008170
0.016279
0.008170
0.000062
-0.003993
0.004116
0.004116
0.000062
-0.003993
-0.003993
-0.003993
-0.012102
-0.003993
-0.008047
0.008170
0.008170
0.000062
-0.008047
0.000062
-0.003993
0.008170
0.004116
-0.003993
0.004116
0.008170
0.000062
-0.003993
-0.008047
-0.016156
0.000062
-0.008047
-0.008047
-0.003993
-0.008047
-0.008047
-0.008047
-0.020210
-0.003993
-0.012102
-0.020210
-0.008047
-0.008047
-0.003993
0.008170
0.016279
-0.008047
-0.032374
-0.044537
-0.040482
-0.044537
-0.036428
-0.003993
-0.003993
-0.003993
-0.016156
-0.024265
-0.008047
-0.012102
-0.016156
-0.012102
-0.008047
-0.003993
-0.003993
-0.003993
-0.003993
0.000062
0.000062
0.048714
0.048714
-0.012102
-0.308073
-0.174278
-0.040482
-0.024265
0.008170
0.044660
0.044660
0.028442
0.040606
0.020334
0.036551
0.016279
0.016279
0.028442
0.036551
0.032497
0.036551
0.028442
0.036551
0.024388
0.028442
0.036551
0.024388
0.028442
0.028442
0.032497
0.036551
0.008170
0.004116
-0.008047
-0.016156
-0.016156
-0.020210
-0.024265
-0.036428
-0.052646
-0.044537
-0.052646
-0.044537
-0.024265
-0.032374
-0.032374
-0.008047
-0.020210
-0.008047
-0.024265
-0.012102
-0.012102
0.004116
-0.003993
-0.008047
-0.003993
0.000062
0.004116
0.008170
0.000062
0.012225
0.008170
0.012225
0.000062
-0.003993
0.008170
0.012225
0.008170
0.008170
0.008170
0.000062
0.000062
-0.003993
-0.003993
0.004116
0.008170
0.004116
0.004116
0.008170
0.008170
0.008170
0.004116
0.008170
0.004116
0.012225
0.000062
0.008170
0.012225
0.008170
0.004116
0.004116
0.004116
-0.003993
0.000062
0.004116
0.000062
0.012225
0.004116
0.004116
0.008170
0.000062
0.008170
0.012225
0.024388
0.016279
0.000062
0.012225
0.032497
0.016279
-0.016156
-0.032374
-0.024265
-0.032374
-0.016156
0.008170
0.008170
0.000062
-0.003993
-0.003993
0.000062
0.008170
0.008170
0.012225
0.008170
0.004116
0.000062
0.004116
0.024388
0.024388
0.016279
0.044660
0.068986
0.008170
-0.312127
-0.190495
-0.101298
-0.012102
0.028442
0.060878
0.036551
0.040606
0.044660
0.036551
0.052769
0.036551
0.024388
0.028442
0.024388
0.044660
0.036551
0.028442
0.032497
0.012225
0.024388
0.032497
0.028442
0.028442
0.020334
0.032497
0.036551
0.032497
0.028442
0.008170
0.008170
0.000062
-0.020210
-0.028319
-0.032374
-0.036428
-0.040482
-0.048591
-0.028319
-0.032374
-0.020210
-0.008047
-0.008047
-0.008047
0.000062
-0.012102
-0.003993
0.000062
-0.012102
-0.003993
0.004116
0.004116
0.008170
0.000062
0.012225
0.004116
0.012225
0.012225
0.008170
0.004116
0.000062
0.008170
0.000062
0.004116
0.000062
0.004116
0.004116
0.004116
0.004116
0.000062
0.000062
0.008170
-0.003993
0.008170
0.012225
0.004116
-0.003993
-0.012102
-0.012102
-0.016156
0.000062
-0.003993
-0.003993
0.004116
0.008170
0.000062
-0.003993
0.000062
-0.012102
-0.012102
-0.016156
0.000062
0.000062
-0.003993
-0.003993
-0.016156
-0.024265
-0.016156
-0.016156
-0.008047
0.000062
-0.003993
0.008170
0.016279
-0.003993
-0.032374
-0.044537
-0.048591
-0.048591
-0.012102
-0.012102
-0.008047
0.000062
0.000062
-0.003993
0.000062
-0.003993
0.004116
0.000062
-0.012102
-0.008047
0.000062
-0.008047
-0.003993
0.008170
0.020334
0.048714
0.081150
-0.166169
-0.291855
-0.145897
-0.064809
0.008170
0.048714
0.056823
0.036551
0.044660
0.040606
0.040606
0.056823
0.028442
0.040606
0.040606
0.036551
0.040606
0.024388
0.044660
0.028442
0.036551
0.040606
0.032497
0.044660
0.044660
0.044660
0.048714
0.048714
0.036551
0.020334
0.020334
0.008170
0.004116
-0.008047
-0.012102
-0.032374
-0.032374
-0.028319
-0.032374
-0.020210
-0.024265
-0.024265
-0.008047
-0.012102
0.000062
-0.008047
0.000062
0.000062
-0.003993
-0.012102
-0.008047
-0.003993
0.000062
-0.012102
-0.003993
-0.003993
-0.003993
0.008170
0.008170
0.008170
0.000062
-0.008047
0.004116
0.000062
0.000062
0.008170
0.000062
0.004116
0.008170
-0.012102
-0.012102
-0.016156
0.000062
0.020334
-0.008047
0.000062
-0.036428
-0.020210
-0.032374
-0.020210
-0.003993
0.004116
-0.020210
-0.032374
-0.028319
-0.032374
-0.024265
-0.040482
-0.068863
-0.016156
-0.040482
-0.040482
-0.020210
-0.028319
-0.036428
-0.028319
-0.040482
-0.044537
-0.044537
-0.044537
-0.028319
-0.020210
-0.028319
-0.056700
-0.076972
-0.068863
-0.081026
-0.068863
-0.048591
-0.056700
-0.056700
-0.052646
-0.052646
-0.044537
-0.040482
-0.032374
-0.036428
-0.040482
-0.044537
-0.048591
-0.044537
-0.048591
-0.044537
-0.003993
0.024388
0.052769
-0.121570
-0.340508
-0.202658
-0.093190
0.036551
0.105476
0.113585
0.105476
0.117639
0.105476
0.097367
0.113585
0.101422
0.097367
0.125748
0.109530
0.113585
0.109530
0.117639
0.117639
0.121693
0.121693
0.125748
0.129802
0.137911
0.129802
0.121693
0.113585
0.109530
0.105476
0.097367
0.093313
0.093313
0.056823
0.073041
0.036551
0.016279
0.012225
0.012225
0.040606
0.036551
0.028442
0.040606
0.036551
0.036551
0.040606
0.052769
0.068986
0.068986
0.048714
0.036551
0.036551
0.048714
0.036551
0.036551
0.032497
0.028442
0.036551
0.048714
0.036551
0.012225
0.028442
0.016279
0.012225
0.032497
0.020334
-0.003993
0.028442
0.012225
0.028442
0.004116
-0.020210
-0.003993
0.000062
0.000062
0.008170
-0.003993
0.004116
0.000062
-0.003993
0.008170
-0.020210
0.008170
0.012225
-0.003993
-0.032374
-0.008047
0.012225
0.016279
0.000062
-0.012102
-0.003993
-0.003993
0.004116
-0.008047
-0.016156
-0.008047
-0.040482
-0.012102
-0.008047
0.020334
-0.003993
0.012225
0.000062
0.020334
0.016279
-0.016156
-0.048591
-0.020210
-0.028319
-0.068863
0.004116
-0.003993
0.000062
0.004116
0.012225
-0.008047
-0.064809
0.008170
0.020334
0.008170
0.012225
-0.008047
-0.012102
0.008170
0.004116
0.016279
-0.008047
0.073041
-0.003993
-0.308073
-0.214821
-0.105353
-0.024265
-0.012102
0.044660
0.008170
0.036551
0.032497
-0.003993
0.028442
0.028442
0.028442
0.016279
-0.016156
-0.003993
-0.008047
0.068986
0.048714
0.016279
-0.028319
-0.016156
-0.008047
0.000062
0.012225
-0.003993
0.000062
-0.016156
0.008170
0.000062
-0.044537
-0.052646
-0.044537
-0.036428
-0.048591
-0.060754
-0.097244
-0.105353
-0.012102
-0.044537
-0.036428
-0.024265
-0.028319
-0.052646
0.000062
-0.093190
-0.040482
-0.012102
-0.020210
0.004116
0.012225
0.004116
-0.012102
-0.016156
-0.020210
-0.016156
0.004116
-0.003993
0.012225
-0.040482
0.004116
-0.016156
-0.020210
-0.032374
0.028442
-0.032374
0.024388
0.016279
-0.040482
0.000062
-0.024265
-0.032374
-0.076972
0.004116
0.012225
0.016279
-0.012102
-0.076972
0.016279
-0.056700
-0.016156
-0.040482
0.032497
-0.032374
-0.008047
-0.012102
-0.008047
-0.016156
0.004116
-0.044537
-0.032374
0.004116
0.004116
0.008170
-0.020210
0.008170
-0.052646
0.000062
-0.003993
-0.008047
0.004116
0.016279
0.012225
-0.032374
-0.020210
-0.016156
-0.024265
-0.012102
0.024388
0.000062
0.016279
-0.016156
0.000062
-0.016156
0.012225
0.000062
0.000062
-0.003993
-0.003993
0.008170
0.004116
-0.040482
0.004116
0.052769
0.073041
0.064932
-0.206713
-0.202658
-0.174278
-0.068863
-0.008047
0.040606
0.056823
0.056823
0.036551
0.044660
0.028442
0.044660
0.077095
0.044660
0.032497
0.040606
0.032497
0.004116
0.032497
0.024388
0.056823
0.068986
0.048714
0.101422
0.048714
0.064932
0.036551
0.052769
0.060878
0.040606
0.008170
-0.012102
0.000062
0.008170
-0.008047
-0.020210
-0.020210
-0.016156
-0.008047
-0.012102
-0.012102
-0.012102
-0.008047
0.020334
-0.012102
0.000062
-0.024265
0.012225
0.008170
-0.020210
-0.003993
0.028442
0.044660
-0.008047
-0.028319
-0.008047
-0.020210
0.000062
-0.012102
-0.008047
-0.016156
0.024388
-0.008047
-0.003993
0.000062
0.008170
0.008170
0.028442
-0.003993
-0.032374
-0.008047
0.020334
0.004116
0.020334
0.020334
0.004116
0.012225
-0.008047
-0.016156
0.012225
-0.016156
-0.056700
0.024388
0.024388
0.008170
0.012225
0.012225
-0.028319
0.024388
-0.052646
-0.056700
-0.060754
-0.012102
-0.036428
-0.008047
0.016279
-0.036428
-0.008047
0.028442
0.040606
0.008170
0.000062
-0.024265
0.024388
-0.012102
-0.040482
-0.064809
-0.020210
-0.032374
-0.020210
-0.024265
-0.024265
-0.024265
-0.008047
-0.016156
-0.008047
0.012225
0.000062
-0.032374
-0.008047
-0.008047
-0.008047
-0.016156
0.020334
0.032497
0.068986
-0.158060
-0.214821
-0.085081
-0.081026
-0.040482
0.008170
0.024388
0.032497
0.020334
0.028442
0.024388
0.048714
0.048714
-0.016156
0.028442
-0.020210
0.008170
0.004116
0.032497
0.016279
0.020334
0.036551
0.028442
0.036551
0.036551
0.028442
0.036551
0.028442
0.028442
0.032497
0.028442
0.016279
-0.012102
-0.012102
-0.016156
-0.016156
-0.008047
0.012225
-0.032374
-0.008047
0.000062
-0.044537
0.016279
0.012225
0.020334
0.008170
0.000062
-0.008047
-0.012102
0.040606
-0.016156
0.020334
0.004116
0.016279
-0.024265
-0.003993
0.000062
0.016279
0.000062
0.008170
0.008170
0.008170
-0.003993
0.016279
0.036551
0.016279
0.008170
0.008170
0.016279
0.024388
0.008170
0.004116
-0.012102
0.008170
0.000062
0.008170
0.020334
0.016279
-0.020210
0.016279
0.016279
-0.012102
0.024388
-0.016156
0.012225
-0.016156
-0.016156
-0.008047
-0.020210
-0.008047
0.000062
-0.003993
-0.008047
0.000062
0.012225
0.000062
-0.008047
-0.008047
0.016279
-0.003993
0.004116
0.012225
0.020334
-0.012102
-0.032374
-0.028319
-0.048591
-0.024265
-0.024265
0.012225
-0.003993
