0.004116
0.008170
0.008170
0.004116
0.004116
0.012225
0.024388
0.020334
0.040606
0.044660
-0.032374
-0.064809
-0.060754
-0.048591
-0.032374
-0.016156
-0.016156
-0.012102
-0.008047
-0.012102
-0.008047
-0.008047
0.000062
0.000062
0.016279
0.060878
0.141965
0.093313
-0.287801
-0.612152
-0.247257
0.097367
0.275761
0.214945
0.162237
0.089258
0.077095
0.060878
0.044660
0.044660
0.032497
0.028442
0.028442
0.020334
0.032497
0.020334
0.016279
0.004116
0.000062
0.008170
0.004116
-0.008047
-0.008047
-0.012102
-0.008047
-0.016156
-0.016156
-0.020210
-0.032374
-0.028319
-0.020210
-0.028319
-0.012102
-0.008047
-0.008047
0.000062
-0.003993
0.008170
0.004116
0.012225
0.016279
-0.003993
0.016279
0.012225
0.012225
0.016279
0.004116
0.004116
0.008170
0.004116
0.000062
0.008170
0.000062
0.004116
0.000062
-0.003993
0.000062
0.000062
0.004116
0.000062
0.004116
0.008170
0.016279
0.032497
0.032497
0.040606
-0.036428
-0.068863
-0.056700
-0.048591
-0.032374
-0.032374
-0.028319
-0.024265
-0.012102
-0.020210
-0.012102
-0.008047
-0.008047
0.004116
0.008170
0.064932
0.137911
0.105476
-0.344562
-0.681077
-0.368889
0.052769
0.251434
0.206836
0.113585
0.068986
0.060878
0.044660
0.036551
0.044660
0.024388
0.044660
0.036551
0.020334
0.028442
0.028442
0.020334
0.020334
0.020334
0.024388
0.020334
0.016279
0.024388
0.016279
0.028442
0.024388
0.020334
0.032497
0.016279
0.008170
0.008170
-0.003993
0.004116
-0.003993
0.000062
-0.003993
0.008170
0.012225
0.000062
0.008170
0.008170
0.004116
0.016279
0.008170
0.004116
0.004116
0.012225
0.008170
0.000062
0.004116
0.008170
0.008170
0.000062
0.000062
0.000062
0.000062
-0.012102
-0.008047
0.000062
-0.003993
-0.008047
-0.008047
0.000062
0.012225
0.024388
0.044660
-0.016156
-0.076972
-0.093190
-0.068863
-0.048591
-0.052646
-0.028319
-0.036428
-0.036428
-0.036428
-0.024265
-0.032374
-0.020210
-0.024265
-0.016156
0.040606
0.101422
0.097367
-0.267529
-0.701349
-0.454031
-0.028319
0.210890
0.174401
0.101422
0.048714
0.048714
0.036551
0.028442
0.032497
0.028442
0.016279
0.020334
0.008170
0.012225
0.000062
0.008170
0.008170
-0.003993
0.016279
0.008170
0.016279
0.020334
0.016279
0.032497
0.024388
0.028442
0.028442
0.020334
0.012225
0.012225
0.000062
0.008170
-0.003993
-0.012102
-0.003993
0.000062
0.004116
0.008170
0.008170
0.012225
0.008170
0.016279
0.004116
0.012225
0.020334
0.012225
0.016279
0.016279
0.020334
0.012225
0.012225
0.000062
0.004116
0.004116
0.000062
0.004116
0.004116
0.004116
-0.003993
0.004116
0.020334
0.028442
0.036551
0.056823
0.012225
-0.060754
-0.056700
-0.044537
-0.024265
-0.020210
-0.003993
-0.008047
-0.012102
-0.012102
-0.003993
-0.012102
-0.012102
-0.012102
-0.008047
0.040606
0.085204
0.129802
-0.174278
-0.664860
-0.437813
0.016279
0.259543
0.231162
0.125748
0.056823
0.040606
0.032497
0.004116
0.012225
0.008170
0.004116
0.012225
0.004116
0.016279
0.008170
0.004116
0.016279
-0.003993
0.016279
0.016279
0.012225
0.032497
0.024388
0.024388
0.020334
0.020334
0.020334
0.000062
0.000062
0.004116
-0.008047
-0.003993
-0.003993
0.004116
0.016279
0.004116
0.024388
0.012225
0.020334
0.020334
0.020334
0.020334
0.020334
0.024388
0.032497
0.012225
0.020334
0.004116
0.000062
0.012225
0.008170
0.000062
0.012225
0.012225
0.004116
0.004116
0.016279
0.032497
0.040606
0.052769
0.024388
-0.060754
-0.072918
-0.052646
-0.032374
-0.020210
-0.020210
-0.012102
-0.020210
-0.024265
-0.012102
-0.012102
-0.008047
-0.008047
-0.008047
0.032497
0.085204
0.146020
-0.097244
-0.599989
-0.490521
-0.036428
0.210890
0.255489
0.186564
0.081150
0.056823
0.056823
0.028442
0.040606
0.032497
0.020334
0.024388
0.012225
0.004116
0.012225
0.000062
0.004116
0.004116
0.008170
0.004116
-0.003993
-0.003993
-0.008047
-0.012102
0.004116
-0.003993
0.004116
-0.012102
-0.012102
-0.020210
-0.016156
-0.016156
-0.008047
-0.020210
-0.003993
-0.008047
-0.003993
0.000062
0.000062
0.008170
0.000062
-0.008047
0.008170
0.000062
0.008170
0.008170
-0.003993
0.004116
0.000062
0.008170
-0.003993
-0.003993
0.004116
0.000062
0.004116
0.008170
0.004116
0.012225
0.012225
0.040606
0.048714
0.060878
0.056823
-0.032374
-0.056700
-0.040482
-0.032374
-0.008047
-0.003993
-0.012102
-0.012102
-0.012102
-0.003993
0.004116
0.008170
0.020334
0.060878
0.113585
0.186564
0.243325
-0.032374
-0.559445
-0.745948
-0.470249
-0.206713
-0.024265
0.032497
0.044660
0.052769
0.064932
0.060878
0.060878
0.056823
0.064932
0.060878
0.064932
0.073041
0.085204
0.089258
0.093313
0.105476
0.105476
0.125748
0.133857
0.129802
0.137911
0.133857
0.125748
0.117639
0.109530
0.077095
0.060878
0.032497
0.016279
0.000062
-0.012102
-0.028319
-0.024265
-0.024265
-0.020210
-0.020210
-0.020210
-0.012102
-0.008047
-0.012102
-0.016156
-0.024265
-0.024265
-0.024265
-0.016156
-0.012102
-0.016156
-0.012102
-0.020210
-0.024265
-0.012102
-0.012102
-0.020210
-0.020210
-0.016156
-0.008047
0.012225
0.020334
0.044660
0.000062
-0.081026
-0.081026
-0.068863
-0.040482
-0.032374
-0.020210
-0.028319
-0.028319
-0.028319
-0.020210
-0.016156
-0.016156
-0.016156
-0.008047
0.044660
0.117639
0.146020
-0.194550
-0.697295
-0.522956
-0.044537
0.227108
0.206836
0.146020
0.081150
0.068986
0.060878
0.040606
0.040606
0.032497
0.040606
0.032497
0.024388
0.024388
0.024388
0.016279
0.032497
0.020334
0.028442
0.024388
0.024388
0.036551
0.028442
0.028442
0.036551
0.024388
0.032497
0.024388
0.012225
0.008170
0.004116
0.008170
0.004116
0.004116
0.008170
-0.003993
0.012225
0.012225
0.016279
0.016279
0.020334
0.024388
0.024388
0.012225
0.024388
0.012225
0.012225
0.016279
0.020334
0.016279
0.012225
0.016279
0.012225
0.012225
0.016279
0.012225
0.020334
0.040606
0.048714
0.056823
0.048714
-0.032374
-0.056700
-0.048591
-0.024265
-0.012102
0.000062
-0.003993
0.008170
0.024388
0.044660
0.064932
0.073041
0.024388
-0.032374
-0.056700
-0.235093
-0.429705
-0.770274
-1.309509
-1.354107
-0.656751
-0.182386
0.008170
0.060878
0.093313
0.093313
0.133857
0.125748
0.141965
0.162237
0.162237
0.182509
0.194673
0.218999
0.251434
0.259543
0.287924
0.312250
0.324413
0.344685
0.348740
0.356849
0.348740
0.336577
0.320359
0.287924
0.255489
0.214945
0.158183
0.121693
0.060878
0.032497
0.012225
-0.008047
-0.024265
-0.020210
-0.020210
-0.008047
-0.020210
-0.024265
-0.020210
-0.016156
-0.008047
-0.016156
-0.008047
-0.008047
-0.016156
-0.008047
-0.008047
-0.012102
-0.020210
-0.016156
-0.012102
-0.016156
-0.003993
0.000062
-0.003993
0.008170
0.016279
0.028442
0.044660
0.020334
-0.064809
-0.072918
-0.052646
-0.024265
-0.016156
0.000062
-0.008047
-0.012102
-0.012102
0.000062
0.008170
0.008170
-0.003993
0.012225
0.048714
0.101422
0.174401
-0.052646
-0.587826
-0.579717
-0.141842
0.178455
0.239271
0.182509
0.089258
0.064932
0.068986
0.044660
0.044660
0.040606
0.040606
0.044660
0.028442
0.032497
0.028442
0.012225
0.020334
0.016279
0.012225
0.016279
0.004116
0.008170
0.008170
0.012225
0.024388
0.016279
0.024388
0.028442
0.016279
0.008170
-0.008047
0.000062
-0.012102
-0.012102
-0.012102
-0.008047
0.000062
-0.003993
-0.003993
-0.003993
-0.003993
-0.016156
0.000062
-0.016156
-0.003993
-0.003993
-0.012102
-0.016156
-0.003993
-0.012102
-0.016156
-0.012102
-0.016156
-0.020210
-0.008047
-0.016156
-0.024265
-0.016156
-0.016156
0.004116
0.020334
0.040606
0.012225
-0.072918
-0.089135
-0.044537
-0.008047
0.008170
0.048714
-0.020210
-0.072918
-0.129679
-0.376997
-0.579717
-0.802709
-1.045973
-1.252747
-1.333835
-1.447358
-1.532501
-1.394651
-1.131115
-0.449977
-0.020210
0.121693
0.178455
0.214945
0.247380
0.279815
0.308196
0.340631
0.373066
0.405501
0.437936
0.498752
0.535242
0.575786
0.604167
0.632548
0.669037
0.681200
0.697418
0.697418
0.685255
0.660928
0.612276
0.559568
0.494698
0.417665
0.340631
0.279815
0.190618
0.133857
0.077095
0.040606
0.016279
-0.008047
-0.016156
-0.024265
-0.024265
-0.028319
-0.036428
-0.032374
-0.036428
-0.028319
-0.028319
-0.036428
-0.024265
-0.032374
-0.036428
-0.036428
-0.036428
-0.028319
-0.032374
-0.032374
-0.036428
-0.036428
-0.024265
-0.032374
-0.036428
-0.036428
-0.032374
-0.012102
-0.003993
0.000062
0.020334
-0.052646
-0.089135
-0.089135
-0.068863
-0.060754
-0.040482
-0.044537
-0.044537
-0.044537
-0.036428
-0.040482
-0.016156
-0.016156
-0.024265
-0.016156
0.040606
0.113585
0.101422
-0.267529
-0.685132
-0.368889
0.008170
0.214945
0.190618
0.133857
0.040606
0.040606
0.020334
0.000062
0.000062
-0.008047
-0.012102
0.000062
-0.020210
-0.008047
-0.003993
-0.020210
-0.020210
-0.024265
-0.020210
-0.024265
-0.024265
-0.028319
-0.028319
-0.020210
-0.016156
-0.016156
-0.016156
-0.032374
-0.028319
-0.028319
-0.036428
-0.020210
-0.020210
-0.020210
-0.012102
-0.012102
0.000062
-0.003993
0.008170
0.012225
0.000062
0.000062
0.004116
0.004116
0.008170
-0.003993
0.004116
0.000062
-0.003993
0.012225
0.004116
0.000062
0.000062
-0.003993
0.000062
0.000062
0.000062
0.016279
0.024388
0.032497
0.060878
0.008170
-0.024265
-0.008047
0.028442
0.032497
-0.036428
-0.072918
-0.174278
-0.413487
-0.599989
-0.806764
-1.066245
-1.232475
-1.277074
-1.406814
-1.427086
-1.285182
-0.968939
-0.340508
0.052769
0.166292
0.210890
0.263597
0.279815
0.300087
0.348740
0.373066
0.409556
0.433882
0.494698
0.523079
0.571732
0.608221
0.644711
0.669037
0.693364
0.713636
0.721744
0.701472
0.685255
0.656874
0.592004
0.539296
0.462263
0.397393
0.328468
0.255489
0.170346
0.113585
0.060878
0.032497
0.008170
-0.016156
-0.028319
-0.024265
-0.036428
-0.024265
-0.036428
-0.036428
-0.032374
-0.036428
-0.044537
-0.044537
-0.044537
-0.044537
-0.044537
-0.044537
-0.048591
-0.044537
-0.040482
-0.052646
-0.044537
-0.044537
-0.048591
-0.040482
-0.044537
-0.048591
-0.048591
-0.044537
-0.044537
-0.044537
-0.040482
-0.024265
-0.012102
-0.012102
0.012225
-0.048591
-0.101298
-0.101298
-0.085081
-0.064809
-0.056700
-0.048591
-0.052646
-0.056700
-0.052646
-0.048591
-0.032374
-0.036428
-0.028319
-0.016156
0.044660
0.117639
0.117639
-0.222930
-0.681077
-0.437813
-0.024265
0.210890
0.202781
0.141965
0.060878
0.048714
0.044660
0.028442
0.036551
0.024388
0.024388
0.020334
0.020334
0.028442
0.020334
0.020334
0.020334
0.004116
0.008170
0.016279
0.008170
0.024388
0.020334
0.024388
0.032497
0.032497
0.028442
0.020334
0.016279
0.008170
-0.008047
0.004116
0.000062
-0.003993
0.000062
0.000062
0.012225
0.020334
0.020334
0.016279
0.020334
0.024388
0.024388
0.028442
0.024388
0.016279
0.004116
0.016279
0.016279
0.016279
0.016279
0.008170
0.004116
-0.003993
0.008170
0.004116
0.000062
0.016279
0.032497
0.032497
0.056823
0.073041
0.004116
-0.008047
-0.003993
-0.068863
-0.105353
-0.202658
-0.433759
-0.604044
-0.802709
-1.070299
-1.216258
-1.273019
-1.410869
-1.431141
-1.260856
-0.827035
-0.235093
0.073041
0.158183
0.206836
0.247380
0.275761
0.316305
0.336577
0.344685
0.401447
0.437936
0.474426
0.510916
0.547405
0.583895
0.616330
0.640656
0.664983
0.673092
0.681200
0.677146
0.648765
0.624439
0.571732
0.506861
0.433882
0.369012
0.304141
0.223053
0.150074
0.101422
0.048714
0.012225
-0.008047
-0.020210
-0.032374
-0.040482
-0.036428
-0.036428
-0.036428
-0.032374
-0.036428
-0.044537
-0.040482
-0.040482
-0.040482
-0.032374
-0.040482
-0.044537
-0.048591
-0.032374
-0.040482
-0.044537
-0.040482
-0.044537
-0.036428
-0.040482
-0.040482
-0.040482
-0.048591
-0.036428
-0.040482
-0.040482
-0.040482
-0.032374
-0.008047
-0.016156
0.000062
0.000062
-0.068863
-0.097244
-0.089135
-0.072918
-0.064809
-0.052646
-0.052646
-0.052646
-0.048591
-0.044537
-0.048591
-0.032374
-0.032374
-0.028319
-0.012102
0.052769
0.137911
0.073041
-0.376997
-0.697295
-0.352671
0.036551
0.223053
0.178455
0.105476
0.060878
0.052769
0.024388
0.028442
0.024388
0.020334
0.028442
0.024388
0.008170
0.020334
0.000062
0.008170
0.008170
0.000062
0.008170
-0.003993
0.004116
0.012225
0.008170
0.016279
0.024388
0.024388
0.020334
0.004116
0.000062
-0.003993
-0.016156
-0.012102
-0.028319
-0.024265
-0.020210
-0.028319
-0.008047
-0.003993
-0.003993
-0.012102
-0.016156
-0.016156
-0.016156
-0.012102
-0.016156
-0.016156
-0.020210
-0.016156
-0.020210
-0.016156
-0.020210
-0.020210
-0.020210
-0.024265
-0.016156
-0.024265
-0.016156
-0.012102
0.008170
0.016279
0.032497
0.020334
-0.056700
-0.044537
-0.008047
0.028442
0.008170
-0.064809
-0.093190
-0.247257
-0.478357
-0.672968
-0.908123
-1.183822
-1.309509
-1.354107
-1.487902
-1.423032
-1.232475
-0.741893
-0.166169
0.101422
0.186564
0.231162
0.263597
0.287924
0.328468
0.356849
0.385229
0.417665
0.446045
0.498752
0.543351
0.587949
0.628493
0.656874
0.689309
0.721744
0.729853
0.729853
0.709581
0.689309
0.644711
0.608221
0.555514
0.482535
0.409556
0.328468
0.243325
0.178455
0.117639
0.085204
0.044660
0.008170
0.000062
-0.008047
-0.003993
-0.008047
0.000062
0.000062
-0.016156
-0.012102
-0.008047
-0.012102
-0.012102
-0.012102
-0.003993
-0.008047
0.008170
-0.016156
-0.016156
-0.024265
-0.032374
-0.020210
-0.028319
-0.020210
-0.052646
-0.008047
0.056823
0.012225
0.012225
-0.056700
-0.117516
-0.129679
-0.158060
-0.133734
-0.105353
-0.121570
-0.198604
-0.247257
-0.243202
-0.251311
-0.222930
-0.218876
-0.206713
-0.202658
-0.198604
-0.170223
-0.170223
-0.166169
-0.158060
-0.162114
-0.093190
-0.028319
0.093313
-0.101298
-0.656751
-0.632424
-0.218876
0.048714
0.141965
0.117639
0.040606
0.016279
0.020334
0.016279
0.024388
0.028442
0.016279
0.028442
0.028442
0.032497
0.036551
0.020334
0.028442
0.020334
0.020334
0.032497
0.024388
0.040606
0.036551
0.044660
0.060878
0.056823
0.052769
0.060878
0.052769
0.056823
0.040606
0.036551
0.036551
0.032497
0.036551
0.036551
0.036551
0.044660
0.044660
0.048714
0.040606
0.036551
0.036551
0.032497
0.036551
0.036551
0.028442
0.024388
0.024388
0.020334
0.024388
0.016279
0.020334
0.008170
0.012225
0.008170
0.008170
0.008170
0.016279
0.024388
0.044660
0.068986
0.060878
-0.032374
-0.056700
-0.036428
-0.024265
-0.016156
0.012225
0.044660
0.068986
0.085204
0.064932
-0.024265
-0.048591
-0.194550
-0.441868
-0.632424
-0.855416
-1.143278
-1.362216
-1.447358
-1.240584
-0.514847
-0.081026
0.077095
0.117639
0.158183
0.166292
0.190618
0.210890
0.227108
0.255489
0.275761
0.304141
0.328468
0.373066
0.413610
0.446045
0.474426
0.506861
0.519024
0.543351
0.555514
0.551460
0.527133
0.502807
0.470372
0.413610
0.348740
0.296033
0.210890
0.154129
0.097367
0.056823
0.032497
0.012225
-0.008047
-0.016156
-0.016156
-0.016156
-0.028319
-0.020210
-0.012102
-0.016156
-0.008047
-0.008047
-0.008047
-0.008047
-0.012102
-0.008047
-0.020210
-0.012102
-0.008047
-0.016156
-0.008047
-0.016156
-0.024265
-0.016156
-0.016156
-0.012102
-0.012102
-0.003993
0.004116
0.012225
0.040606
0.024388
-0.068863
-0.085081
-0.076972
-0.060754
-0.052646
-0.044537
-0.032374
-0.040482
-0.040482
-0.032374
-0.032374
-0.036428
-0.032374
-0.024265
-0.012102
0.048714
0.137911
0.068986
-0.405378
-0.677023
-0.312127
0.060878
0.231162
0.178455
0.089258
0.052769
0.036551
0.020334
0.020334
0.012225
0.000062
0.012225
0.008170
0.000062
0.012225
-0.003993
-0.008047
-0.003993
-0.012102
0.004116
-0.008047
-0.003993
0.000062
-0.003993
0.000062
0.000062
0.004116
0.004116
-0.012102
-0.016156
-0.012102
-0.016156
-0.016156
-0.012102
-0.003993
-0.012102
-0.008047
0.012225
0.004116
0.008170
0.012225
0.012225
0.012225
0.016279
0.008170
0.016279
0.020334
0.020334
0.016279
0.012225
0.012225
0.004116
0.008170
0.004116
0.000062
0.012225
0.012225
0.020334
0.032497
0.040606
0.068986
0.036551
-0.048591
-0.056700
-0.064809
-0.028319
-0.016156
-0.003993
-0.008047
-0.008047
-0.003993
-0.012102
-0.003993
-0.003993
0.000062
0.016279
0.056823
0.146020
0.247380
0.077095
-0.449977
-0.518901
-0.190495
0.056823
0.052769
0.064932
0.064932
0.068986
0.060878
0.040606
0.060878
0.056823
0.060878
0.064932
0.052769
0.056823
0.052769
0.056823
0.056823
0.060878
0.060878
0.073041
0.068986
0.068986
0.073041
0.077095
0.064932
0.060878
0.056823
0.040606
0.020334
0.024388
-0.008047
-0.008047
-0.003993
-0.008047
-0.012102
-0.012102
-0.012102
0.000062
-0.003993
0.004116
-0.012102
-0.012102
0.000062
-0.003993
-0.003993
-0.016156
-0.008047
-0.012102
-0.008047
-0.016156
-0.012102
-0.012102
-0.016156
-0.016156
-0.016156
-0.020210
-0.020210
-0.020210
-0.024265
-0.003993
-0.012102
0.004116
0.008170
-0.056700
-0.105353
-0.089135
-0.076972
-0.056700
-0.048591
-0.040482
-0.048591
-0.052646
-0.044537
-0.044537
-0.044537
-0.040482
-0.036428
-0.024265
0.032497
0.121693
0.068986
-0.389161
-0.660805
-0.275637
0.052769
0.218999
0.170346
0.105476
0.040606
0.032497
0.020334
0.012225
0.024388
0.008170
0.008170
0.000062
-0.008047
0.008170
-0.008047
-0.008047
-0.003993
-0.012102
-0.003993
-0.012102
-0.008047
0.000062
-0.003993
0.004116
-0.003993
0.000062
0.004116
-0.016156
-0.012102
-0.028319
-0.028319
-0.012102
-0.020210
-0.008047
-0.008047
-0.012102
-0.003993
-0.003993
-0.012102
0.000062
0.004116
0.008170
0.008170
0.008170
0.008170
0.004116
0.012225
0.012225
0.008170
0.008170
0.004116
-0.008047
0.004116
0.008170
0.012225
0.016279
0.028442
0.040606
0.048714
0.044660
-0.040482
-0.072918
-0.056700
-0.024265
-0.008047
-0.003993
-0.008047
-0.016156
-0.016156
-0.008047
-0.012102
0.004116
0.000062
0.004116
0.036551
0.093313
0.178455
0.044660
-0.494575
-0.644588
-0.202658
0.150074
0.271706
0.214945
0.105476
0.077095
0.068986
0.052769
0.048714
0.044660
0.040606
0.044660
0.036551
0.032497
0.036551
0.020334
0.032497
0.032497
0.024388
0.040606
0.032497
0.028442
0.040606
0.028442
0.040606
0.032497
0.036551
0.032497
0.024388
0.028442
0.024388
0.024388
0.020334
0.012225
0.020334
0.020334
0.016279
0.020334
0.012225
0.020334
0.012225
0.008170
0.008170
0.012225
0.020334
0.012225
0.016279
0.016279
0.012225
0.016279
0.012225
0.008170
0.004116
0.000062
0.004116
0.012225
0.004116
0.000062
0.004116
0.016279
0.024388
0.028442
0.056823
0.032497
-0.056700
-0.068863
-0.064809
-0.044537
-0.028319
-0.020210
-0.016156
-0.024265
-0.024265
-0.016156
-0.008047
-0.012102
-0.008047
-0.008047
0.028442
0.085204
0.166292
-0.012102
-0.555391
-0.632424
-0.202658
0.154129
0.251434
0.174401
0.089258
0.068986
0.068986
0.044660
0.048714
0.044660
0.032497
0.036551
0.028442
0.032497
0.032497
0.012225
0.016279
0.012225
0.000062
0.008170
0.000062
0.008170
0.016279
0.012225
0.008170
-0.012102
-0.008047
-0.020210
-0.020210
-0.020210
-0.032374
-0.044537
-0.044537
-0.048591
-0.040482
-0.044537
-0.036428
-0.036428
-0.040482
-0.028319
-0.024265
-0.016156
-0.024265
-0.032374
-0.016156
-0.020210
-0.012102
-0.012102
-0.012102
0.000062
-0.008047
-0.012102
-0.003993
-0.008047
-0.016156
-0.020210
-0.012102
0.012225
0.012225
0.032497
0.008170
-0.060754
-0.085081
-0.072918
-0.044537
-0.024265
-0.028319
-0.020210
-0.020210
-0.028319
-0.020210
-0.024265
-0.016156
-0.020210
-0.012102
0.020334
0.068986
0.146020
-0.003993
-0.514847
-0.543228
-0.101298
0.150074
0.255489
0.194673
0.089258
0.056823
0.056823
0.044660
0.032497
0.028442
0.016279
0.028442
0.016279
0.016279
0.020334
-0.003993
0.012225
-0.003993
-0.012102
-0.003993
-0.016156
-0.012102
-0.016156
-0.016156
-0.012102
-0.020210
-0.024265
-0.012102
-0.028319
-0.020210
-0.028319
-0.016156
-0.012102
-0.012102
0.008170
0.004116
0.008170
0.008170
0.004116
0.016279
0.020334
0.024388
0.028442
0.028442
0.028442
0.020334
0.020334
0.020334
0.020334
0.024388
0.012225
0.012225
0.024388
0.012225
0.008170
0.012225
0.028442
0.048714
0.056823
0.044660
-0.020210
-0.072918
-0.052646
-0.032374
-0.020210
0.004116
0.008170
0.004116
-0.008047
0.000062
0.000062
0.008170
0.020334
0.012225
0.028442
0.077095
0.154129
0.085204
-0.316181
-0.555391
-0.170223
0.158183
0.304141
0.231162
0.154129
0.085204
0.073041
0.064932
0.040606
0.044660
0.036551
0.040606
0.036551
0.020334
0.028442
0.016279
0.028442
0.004116
0.000062
0.008170
-0.012102
-0.012102
-0.028319
-0.024265
-0.020210
-0.024265
-0.036428
-0.032374
-0.040482
-0.028319
-0.040482
-0.028319
-0.012102
-0.003993
-0.003993
0.000062
0.008170
0.012225
0.016279
0.024388
0.024388
0.012225
0.024388
0.012225
0.028442
0.024388
0.024388
0.024388
0.008170
0.000062
-0.008047
-0.016156
-0.016156
-0.020210
-0.008047
0.004116
-0.028319
-0.125625
-0.149951
-0.149951
-0.141842
-0.133734
-0.113462
-0.105353
-0.081026
-0.064809
-0.044537
-0.024265
-0.008047
-0.008047
0.004116
0.020334
0.056823
0.117639
0.064932
-0.295909
-0.466194
-0.068863
0.178455
0.300087
0.259543
0.141965
0.052769
0.044660
0.028442
0.016279
0.024388
0.012225
0.024388
0.024388
0.020334
0.028442
0.016279
0.008170
0.000062
-0.008047
-0.012102
-0.040482
-0.044537
-0.048591
-0.068863
-0.068863
-0.085081
-0.101298
-0.076972
-0.105353
-0.101298
-0.081026
-0.072918
-0.064809
-0.064809
-0.048591
-0.044537
-0.052646
-0.040482
-0.044537
-0.044537
-0.048591
-0.044537
-0.040482
-0.052646
-0.052646
-0.060754
-0.068863
-0.056700
-0.060754
-0.076972
-0.089135
-0.085081
-0.064809
-0.072918
-0.064809
-0.060754
-0.117516
-0.186441
-0.178332
-0.158060
-0.117516
-0.109407
-0.097244
-0.105353
-0.109407
-0.113462
-0.105353
-0.097244
-0.101298
-0.093190
-0.097244
-0.064809
-0.032374
0.036551
-0.166169
-0.587826
-0.494575
-0.060754
0.170346
0.235217
0.133857
0.024388
-0.036428
-0.044537
-0.052646
-0.032374
-0.032374
-0.048591
-0.016156
-0.032374
-0.024265
-0.024265
-0.024265
-0.024265
-0.024265
-0.012102
0.008170
0.004116
0.024388
0.032497
0.036551
0.064932
0.068986
0.073041
0.081150
0.077095
0.093313
0.093313
0.109530
0.121693
0.117639
0.146020
0.158183
0.214945
0.247380
0.267652
0.259543
0.251434
0.243325
0.243325
0.210890
0.214945
0.194673
0.170346
0.162237
0.146020
0.154129
0.146020
0.154129
0.158183
0.113585
0.032497
0.052769
0.060878
0.085204
0.105476
0.133857
0.141965
0.146020
0.158183
0.162237
0.166292
0.154129
0.158183
0.150074
0.158183
0.186564
0.239271
0.150074
-0.210767
-0.364834
0.012225
0.247380
0.385229
0.332522
0.218999
0.125748
0.105476
0.077095
0.064932
0.068986
0.056823
0.056823
0.052769
0.040606
0.032497
0.016279
0.008170
-0.003993
-0.028319
-0.020210
-0.044537
-0.060754
-0.081026
-0.117516
-0.121570
-0.141842
-0.145897
-0.149951
-0.158060
-0.145897
-0.141842
-0.117516
-0.097244
-0.081026
-0.056700
-0.052646
-0.056700
-0.064809
-0.072918
-0.064809
-0.060754
-0.068863
-0.064809
-0.068863
-0.068863
-0.060754
-0.068863
-0.056700
-0.024265
-0.003993
0.020334
0.044660
-0.003993
-0.081026
-0.101298
-0.072918
-0.060754
-0.040482
-0.040482
-0.032374
-0.003993
0.000062
0.012225
0.016279
0.012225
0.020334
0.020334
0.032497
0.093313
0.162237
0.154129
-0.186441
-0.502684
-0.198604
0.158183
0.364957
0.364957
0.267652
0.162237
0.133857
0.133857
0.101422
0.093313
0.089258
0.081150
0.068986
0.064932
0.060878
0.064932
0.044660
0.060878
0.024388
0.036551
0.024388
0.008170
0.008170
-0.008047
-0.020210
-0.016156
-0.028319
-0.032374
-0.060754
-0.056700
-0.056700
-0.044537
-0.048591
-0.044537
-0.036428
-0.036428
-0.044537
-0.048591
-0.052646
-0.056700
-0.056700
-0.068863
-0.064809
-0.068863
-0.060754
-0.044537
-0.016156
0.008170
0.028442
0.036551
0.060878
0.024388
-0.044537
-0.032374
-0.016156
0.000062
0.016279
0.020334
0.036551
0.044660
0.044660
0.048714
0.044660
0.048714
0.044660
0.060878
0.073041
0.097367
0.137911
0.056823
-0.275637
-0.458085
-0.093190
0.162237
0.296033
0.287924
0.166292
0.081150
0.073041
0.032497
0.036551
0.032497
0.016279
0.016279
0.024388
0.004116
0.000062
-0.012102
-0.012102
-0.024265
-0.048591
-0.040482
-0.056700
-0.068863
-0.072918
-0.101298
-0.105353
-0.117516
-0.129679
-0.125625
-0.121570
-0.109407
-0.105353
-0.093190
-0.068863
-0.068863
-0.085081
-0.085081
-0.097244
-0.089135
-0.081026
-0.089135
-0.081026
-0.089135
-0.093190
-0.085081
-0.081026
-0.060754
-0.056700
-0.028319
-0.008047
0.012225
0.032497
0.008170
-0.060754
-0.089135
-0.072918
-0.044537
-0.044537
-0.024265
-0.008047
0.000062
0.008170
0.020334
0.024388
0.028442
0.028442
0.024388
0.024388
0.085204
0.137911
0.190618
-0.076972
-0.502684
-0.336453
0.052769
0.279815
0.344685
0.259543
0.154129
0.117639
0.101422
0.081150
0.077095
0.064932
0.060878
0.064932
0.052769
0.056823
0.052769
0.044660
0.044660
0.040606
0.032497
0.040606
0.036551
0.044660
0.028442
0.028442
0.040606
0.020334
0.024388
0.004116
-0.003993
0.000062
-0.003993
0.008170
0.004116
-0.003993
0.012225
-0.003993
0.000062
-0.008047
-0.024265
-0.036428
-0.048591
-0.040482
-0.044537
-0.052646
-0.052646
-0.056700
-0.040482
-0.020210
0.016279
0.040606
0.060878
0.060878
-0.003993
-0.056700
-0.036428
-0.024265
-0.012102
-0.008047
0.012225
0.008170
0.004116
0.012225
0.016279
0.020334
0.024388
0.032497
0.024388
0.060878
0.101422
0.146020
-0.040482
-0.445922
-0.360780
0.048714
0.263597
0.348740
0.231162
0.137911
0.085204
0.068986
0.044660
0.052769
0.028442
0.020334
0.036551
0.020334
0.020334
0.024388
0.004116
0.000062
-0.020210
-0.024265
-0.036428
-0.048591
-0.060754
-0.089135
-0.093190
-0.101298
-0.133734
-0.117516
-0.125625
-0.129679
-0.117516
-0.109407
-0.076972
-0.056700
-0.064809
-0.044537
-0.048591
-0.044537
-0.044537
-0.048591
-0.052646
-0.052646
-0.056700
-0.044537
-0.052646
-0.052646
-0.052646
-0.040482
-0.012102
0.000062
0.016279
0.040606
0.000062
-0.085081
-0.085081
-0.068863
-0.052646
-0.048591
-0.040482
-0.008047
-0.020210
-0.016156
0.000062
0.020334
0.016279
0.012225
0.016279
0.036551
0.101422
0.174401
0.056823
-0.429705
-0.620261
-0.194550
0.206836
0.389284
0.324413
0.223053
0.085204
0.077095
0.060878
0.056823
0.040606
0.020334
0.028442
0.024388
0.028442
0.020334
0.012225
0.012225
0.008170
0.016279
0.004116
-0.012102
-0.003993
-0.020210
-0.020210
-0.028319
-0.032374
-0.032374
-0.028319
-0.044537
-0.032374
-0.040482
-0.024265
-0.012102
0.000062
0.004116
0.000062
0.012225
0.012225
0.000062
0.012225
0.008170
0.012225
0.012225
0.012225
0.008170
0.000062
0.008170
0.004116
0.004116
0.016279
0.036551
0.048714
0.040606
0.020334
-0.076972
-0.097244
-0.081026
-0.056700
-0.040482
-0.032374
-0.024265
-0.028319
-0.028319
-0.032374
-0.032374
-0.032374
-0.036428
-0.028319
-0.003993
0.048714
0.105476
0.052769
-0.332399
-0.567554
-0.263474
0.089258
0.259543
0.218999
0.129802
0.052769
0.040606
0.024388
0.016279
0.008170
0.008170
0.020334
0.008170
-0.003993
-0.008047
-0.020210
-0.028319
-0.032374
-0.040482
-0.040482
-0.056700
-0.056700
-0.048591
-0.072918
-0.064809
-0.072918
-0.076972
-0.072918
-0.081026
-0.081026
-0.081026
-0.064809
-0.044537
-0.044537
-0.024265
-0.016156
-0.003993
0.000062
-0.003993
0.008170
0.004116
0.008170
0.020334
0.012225
0.032497
0.044660
0.040606
0.040606
0.036551
0.040606
0.048714
0.068986
0.085204
0.093313
0.068986
-0.003993
-0.032374
-0.012102
-0.016156
0.004116
0.012225
0.020334
0.020334
0.036551
0.028442
0.032497
0.036551
0.028442
0.044660
0.048714
0.105476
0.174401
0.073041
-0.368889
-0.591880
-0.226985
0.133857
0.304141
0.243325
0.166292
0.081150
0.081150
0.060878
0.048714
0.044660
0.036551
0.032497
0.028442
0.020334
0.024388
0.012225
0.020334
0.008170
0.004116
0.000062
-0.008047
-0.008047
-0.024265
-0.028319
-0.028319
-0.036428
-0.044537
-0.048591
-0.068863
-0.060754
-0.072918
-0.056700
-0.048591
-0.052646
-0.036428
-0.040482
-0.036428
-0.036428
-0.028319
-0.016156
-0.016156
-0.008047
-0.012102
-0.003993
0.000062
0.008170
0.004116
0.000062
0.004116
0.004116
0.012225
0.020334
0.040606
0.040606
0.060878
0.036551
-0.052646
-0.072918
-0.060754
-0.032374
-0.024265
-0.012102
-0.003993
-0.003993
0.000062
0.000062
0.016279
0.012225
0.020334
0.016279
0.048714
0.101422
0.158183
0.036551
-0.429705
-0.571608
-0.210767
0.158183
0.300087
0.231162
0.141965
0.089258
0.089258
0.081150
0.077095
0.060878
0.052769
0.060878
0.060878
0.064932
0.064932
0.040606
0.052769
0.048714
0.052769
0.056823
0.073041
0.089258
0.089258
0.089258
0.093313
0.081150
0.068986
0.040606
0.012225
0.008170
0.000062
-0.008047
-0.008047
-0.012102
-0.003993
0.004116
-0.003993
0.004116
-0.003993
0.008170
0.004116
0.008170
0.000062
0.004116
0.004116
0.004116
0.004116
0.000062
0.000062
-0.003993
-0.003993
-0.008047
0.000062
0.004116
0.024388
0.028442
0.044660
0.048714
-0.020210
-0.081026
-0.085081
-0.060754
-0.040482
-0.032374
-0.024265
-0.020210
-0.012102
-0.008047
-0.008047
-0.008047
0.000062
-0.008047
0.000062
0.052769
0.117639
0.129802
-0.206713
-0.624316
-0.498629
-0.068863
0.223053
0.214945
0.137911
0.068986
0.056823
0.048714
0.036551
0.040606
0.028442
0.024388
0.024388
0.024388
0.012225
0.016279
0.020334
0.012225
0.008170
0.004116
0.004116
-0.003993
-0.003993
0.004116
0.000062
0.000062
-0.003993
-0.016156
-0.016156
-0.016156
-0.024265
-0.028319
-0.032374
-0.028319
-0.028319
-0.020210
-0.020210
-0.012102
-0.016156
-0.016156
-0.012102
-0.012102
-0.016156
-0.024265
-0.028319
-0.020210
-0.020210
-0.008047
-0.012102
-0.016156
-0.012102
-0.012102
-0.012102
-0.008047
-0.012102
-0.003993
0.020334
0.032497
0.052769
0.040606
-0.028319
-0.072918
-0.060754
-0.044537
-0.036428
-0.028319
-0.016156
-0.008047
-0.016156
-0.003993
-0.003993
0.000062
-0.008047
0.000062
0.008170
0.073041
0.146020
0.109530
-0.304018
-0.652696
-0.389161
0.040606
0.255489
0.206836
0.129802
0.064932
0.056823
0.036551
0.036551
0.040606
0.028442
0.032497
0.024388
0.020334
0.024388
0.016279
0.016279
0.000062
0.000062
0.012225
0.004116
0.008170
0.008170
0.000062
0.004116
0.000062
0.000062
0.000062
-0.008047
-0.016156
-0.032374
-0.028319
-0.028319
-0.020210
-0.020210
-0.012102
0.000062
-0.008047
0.000062
0.000062
-0.008047
-0.012102
-0.003993
-0.003993
-0.003993
-0.003993
-0.008047
0.004116
0.008170
0.020334
0.024388
0.024388
0.032497
0.028442
0.036551
0.052769
0.073041
0.077095
0.093313
0.040606
-0.036428
-0.040482
-0.020210
-0.008047
0.000062
0.012225
0.028442
0.012225
0.012225
0.020334
0.024388
0.016279
0.008170
0.020334
0.068986
0.097367
0.121693
-0.158060
-0.583772
-0.417541
-0.003993
0.231162
0.271706
0.198727
0.105476
0.077095
0.060878
0.048714
0.052769
0.040606
0.032497
0.040606
0.028442
0.040606
0.032497
0.024388
0.028442
0.020334
0.020334
0.012225
0.004116
0.008170
0.004116
0.004116
0.004116
0.004116
0.004116
0.004116
0.000062
0.000062
-0.008047
0.004116
0.000062
0.000062
0.004116
0.008170
0.016279
0.016279
0.008170
0.024388
0.012225
0.024388
0.016279
0.016279
0.028442
0.024388
0.028442
0.012225
0.000062
0.004116
0.012225
0.008170
0.016279
0.012225
0.008170
0.008170
0.020334
0.032497
0.040606
0.052769
-0.012102
-0.076972
-0.056700
-0.052646
-0.032374
-0.028319
-0.020210
-0.016156
-0.028319
-0.020210
-0.020210
-0.020210
-0.016156
-0.012102
0.004116
0.077095
0.133857
0.056823
-0.417541
-0.697295
-0.385106
0.060878
0.239271
0.186564
0.097367
0.064932
0.056823
0.044660
0.036551
0.032497
0.028442
0.036551
0.036551
0.024388
0.028442
0.016279
0.012225
0.008170
0.008170
0.024388
0.008170
0.012225
0.008170
0.012225
0.016279
0.016279
0.032497
0.028442
-0.003993
0.008170
0.000062
-0.016156
-0.012102
-0.012102
-0.016156
-0.016156
-0.012102
-0.008047
-0.012102
-0.016156
-0.003993
-0.012102
0.000062
0.004116
-0.003993
0.004116
0.004116
-0.008047
-0.008047
-0.003993
-0.012102
-0.012102
-0.008047
-0.012102
-0.003993
-0.008047
-0.003993
0.012225
0.024388
0.044660
0.024388
-0.056700
-0.081026
-0.068863
-0.056700
-0.040482
-0.020210
-0.024265
-0.024265
-0.028319
-0.028319
-0.028319
-0.032374
-0.028319
-0.024265
0.020334
0.077095
0.121693
-0.052646
-0.555391
-0.624316
-0.186441
0.158183
0.255489
0.182509
0.077095
0.036551
0.032497
-0.003993
0.008170
0.008170
-0.003993
0.004116
0.000062
-0.003993
0.004116
0.000062
0.012225
-0.003993
-0.008047
0.000062
-0.003993
0.000062
-0.016156
-0.020210
0.004116
-0.012102
-0.016156
-0.032374
-0.032374
-0.020210
-0.020210
-0.020210
-0.012102
-0.012102
-0.012102
0.004116
0.016279
0.020334
0.020334
0.036551
0.052769
0.048714
0.068986
0.068986
0.064932
0.064932
0.056823
0.060878
0.056823
0.060878
0.060878
0.048714
0.052769
0.052769
0.064932
0.064932
0.073041
0.073041
0.024388
-0.028319
-0.028319
-0.024265
-0.012102
0.012225
0.020334
0.012225
0.012225
0.020334
0.008170
0.016279
0.020334
0.020334
0.024388
0.085204
0.097367
0.085204
-0.231039
-0.620261
-0.320236
0.093313
0.275761
0.283869
0.186564
0.077095
0.052769
0.044660
0.016279
0.024388
0.016279
0.004116
0.004116
-0.003993
0.008170
-0.020210
-0.032374
-0.028319
-0.036428
-0.040482
-0.048591
-0.048591
-0.056700
-0.068863
-0.072918
-0.064809
-0.064809
-0.068863
-0.068863
-0.060754
-0.060754
-0.064809
-0.040482
-0.040482
-0.032374
-0.024265
-0.020210
-0.012102
-0.016156
-0.012102
0.012225
-0.003993
0.000062
0.000062
0.000062
0.008170
-0.003993
-0.012102
-0.020210
-0.020210
-0.016156
-0.024265
-0.020210
-0.003993
-0.008047
-0.003993
0.004116
-0.028319
-0.085081
-0.125625
-0.109407
-0.068863
-0.076972
-0.060754
-0.048591
-0.048591
-0.052646
-0.052646
-0.048591
-0.044537
-0.060754
-0.056700
-0.032374
0.008170
0.048714
-0.105353
-0.531064
-0.490521
0.036551
0.401447
0.587949
0.543351
0.441991
0.385229
0.373066
0.328468
0.279815
0.227108
0.332522
0.397393
0.409556
0.397393
0.381175
0.336577
0.105476
-0.036428
-0.072918
-0.076972
-0.117516
-0.105353
-0.121570
-0.137788
-0.125625
-0.125625
-0.129679
-0.113462
-0.117516
-0.109407
-0.109407
-0.097244
-0.089135
-0.081026
-0.072918
-0.068863
-0.072918
-0.048591
-0.060754
-0.048591
-0.052646
-0.036428
-0.028319
-0.040482
-0.028319
-0.028319
-0.040482
-0.016156
-0.024265
-0.020210
-0.008047
-0.016156
-0.008047
0.000062
0.020334
0.028442
0.052769
0.016279
-0.085081
-0.097244
-0.064809
-0.056700
-0.040482
-0.016156
-0.020210
-0.008047
-0.012102
-0.012102
-0.016156
-0.008047
0.000062
-0.003993
0.040606
0.081150
0.141965
-0.076972
-0.559445
-0.494575
-0.056700
0.214945
0.283869
0.210890
0.101422
0.048714
0.032497
0.028442
0.024388
0.012225
0.012225
0.008170
0.012225
0.004116
-0.008047
-0.028319
-0.016156
-0.003993
-0.012102
-0.012102
-0.020210
-0.024265
-0.036428
-0.016156
-0.016156
-0.012102
-0.024265
-0.028319
-0.044537
-0.028319
-0.028319
-0.020210
-0.016156
-0.003993
0.016279
-0.016156
0.008170
-0.003993
0.008170
0.020334
0.024388
0.008170
0.008170
0.004116
0.012225
0.004116
0.012225
0.024388
0.008170
0.008170
0.004116
0.012225
0.036551
0.036551
0.044660
0.036551
-0.016156
-0.076972
-0.076972
-0.056700
-0.032374
-0.020210
-0.020210
-0.016156
-0.003993
-0.040482
-0.012102
0.004116
-0.016156
-0.003993
-0.012102
0.036551
0.093313
0.040606
-0.316181
-0.551336
-0.190495
0.113585
0.255489
0.214945
0.137911
0.060878
0.048714
0.044660
0.028442
0.073041
0.008170
0.012225
0.012225
0.000062
0.012225
0.000062
0.008170
-0.016156
-0.008047
-0.003993
-0.040482
-0.036428
-0.044537
-0.068863
-0.064809
-0.064809
-0.085081
-0.060754
-0.085081
-0.032374
-0.068863
-0.076972
-0.052646
-0.036428
-0.028319
0.000062
-0.008047
0.012225
0.008170
0.000062
0.004116
0.012225
0.012225
0.024388
0.012225
0.020334
0.012225
0.008170
0.028442
0.016279
0.020334
0.040606
0.028442
0.036551
0.012225
-0.008047
-0.081026
-0.060754
-0.044537
-0.008047
0.000062
0.000062
-0.008047
0.024388
0.004116
0.000062
0.008170
0.020334
0.012225
0.028442
0.056823
0.109530
0.097367
-0.202658
-0.587826
-0.287801
0.093313
0.271706
0.320359
0.210890
0.113585
0.068986
0.060878
0.036551
0.032497
0.012225
0.000062
0.008170
0.000062
0.000062
-0.008047
-0.028319
-0.020210
-0.020210
-0.016156
0.004116
-0.032374
0.020334
-0.036428
-0.036428
-0.048591
-0.085081
-0.085081
-0.097244
-0.113462
-0.109407
-0.072918
-0.052646
-0.032374
0.012225
-0.003993
0.016279
0.073041
0.056823
0.048714
0.073041
0.048714
0.044660
0.064932
0.068986
0.089258
0.089258
0.113585
0.101422
0.097367
0.117639
0.137911
0.133857
0.073041
-0.032374
-0.003993
0.004116
0.028442
0.048714
0.064932
0.081150
0.064932
0.064932
0.081150
0.068986
0.044660
0.048714
0.060878
0.093313
0.081150
0.101422
-0.105353
-0.543228
-0.470249
0.068986
0.287924
0.389284
0.324413
0.227108
0.101422
0.093313
0.064932
0.056823
0.048714
0.056823
0.040606
0.024388
0.036551
0.052769
0.024388
0.020334
0.016279
0.016279
-0.032374
-0.036428
-0.032374
-0.085081
-0.097244
-0.097244
-0.129679
-0.129679
-0.154006
-0.182386
-0.154006
-0.129679
-0.109407
-0.085081
-0.060754
-0.024265
-0.032374
-0.028319
0.012225
0.012225
0.036551
-0.008047
0.020334
0.016279
0.048714
0.012225
0.024388
0.036551
0.028442
0.036551
0.036551
-0.016156
-0.081026
-0.056700
-0.040482
-0.036428
-0.012102
0.008170
0.028442
0.048714
0.020334
0.032497
0.032497
0.028442
0.036551
0.044660
0.052769
0.081150
0.097367
-0.052646
-0.425650
-0.595935
-0.125625
0.206836
0.360903
0.316305
0.194673
0.089258
0.073041
0.056823
0.032497
0.044660
0.020334
0.024388
0.016279
-0.003993
-0.012102
-0.020210
-0.032374
-0.040482
-0.036428
-0.044537
-0.048591
-0.081026
-0.093190
-0.125625
-0.125625
-0.133734
-0.145897
-0.129679
-0.133734
-0.105353
-0.081026
-0.081026
-0.056700
-0.048591
-0.028319
-0.016156
0.000062
0.020334
0.004116
0.008170
-0.008047
-0.008047
0.040606
0.064932
0.036551
0.024388
-0.036428
-0.040482
-0.052646
-0.036428
-0.008047
-0.089135
-0.154006
-0.105353
-0.121570
-0.048591
-0.040482
-0.024265
-0.072918
-0.068863
-0.093190
-0.056700
-0.028319
0.000062
-0.008047
0.048714
0.008170
0.016279
0.056823
-0.068863
-0.599989
-0.539173
-0.040482
0.275761
0.413610
0.186564
0.097367
0.056823
0.048714
0.085204
0.032497
0.040606
-0.012102
0.105476
0.052769
-0.081026
-0.044537
-0.032374
-0.028319
-0.036428
0.024388
-0.040482
-0.072918
0.012225
-0.097244
-0.105353
-0.105353
-0.064809
-0.129679
-0.109407
-0.064809
-0.048591
-0.056700
-0.068863
-0.044537
0.000062
-0.012102
0.036551
0.000062
-0.008047
0.036551
-0.016156
0.016279
0.020334
0.040606
-0.028319
0.081150
-0.020210
-0.020210
0.044660
0.012225
0.068986
0.004116
-0.032374
-0.016156
-0.125625
-0.093190
-0.040482
-0.052646
-0.012102
-0.003993
0.048714
0.024388
-0.003993
-0.040482
-0.076972
-0.060754
-0.044537
0.004116
0.028442
0.036551
-0.271583
-0.685132
-0.324290
0.044660
0.275761
0.287924
0.227108
0.121693
0.048714
0.056823
0.060878
0.121693
0.008170
0.004116
0.048714
0.056823
0.060878
0.056823
0.064932
0.052769
0.113585
0.048714
0.012225
0.024388
0.040606
0.024388
0.024388
0.012225
0.020334
0.028442
0.060878
0.028442
0.024388
0.028442
0.073041
0.089258
0.101422
0.113585
0.097367
0.113585
0.105476
0.105476
0.129802
0.121693
0.093313
0.117639
0.113585
0.141965
0.146020
0.162237
0.146020
0.154129
0.133857
0.073041
0.040606
0.032497
0.073041
0.077095
0.089258
0.129802
0.121693
0.097367
0.101422
0.097367
0.137911
0.121693
0.162237
0.093313
0.162237
0.206836
0.117639
-0.368889
-0.595935
-0.267529
0.158183
0.328468
0.235217
0.113585
0.064932
0.044660
0.024388
0.032497
-0.024265
-0.003993
0.016279
0.020334
0.012225
0.008170
-0.036428
-0.109407
-0.093190
-0.081026
-0.097244
-0.166169
-0.174278
-0.129679
-0.125625
-0.218876
-0.117516
-0.072918
-0.133734
-0.158060
-0.174278
-0.121570
-0.101298
-0.085081
-0.052646
-0.072918
-0.072918
-0.101298
-0.101298
-0.093190
0.008170
0.004116
-0.028319
-0.012102
0.068986
0.085204
0.064932
0.178455
0.089258
0.214945
0.113585
0.040606
0.060878
0.121693
0.141965
0.141965
0.206836
0.186564
0.202781
0.227108
0.259543
0.198727
0.194673
0.210890
0.231162
0.243325
0.279815
0.300087
0.158183
-0.186441
-0.198604
0.227108
0.389284
0.494698
0.421719
0.336577
0.291978
0.300087
0.267652
0.275761
0.263597
0.263597
0.255489
0.210890
0.190618
0.162237
0.121693
0.117639
0.081150
0.060878
-0.020210
-0.089135
-0.190495
-0.283746
-0.328345
-0.372943
-0.413487
-0.405378
-0.433759
-0.429705
-0.429705
-0.409433
-0.356725
-0.340508
-0.328345
-0.291855
-0.279692
-0.259420
-0.243202
-0.247257
-0.231039
-0.239148
-0.235093
-0.218876
-0.194550
-0.149951
-0.145897
-0.121570
-0.105353
-0.105353
-0.113462
-0.129679
-0.105353
-0.068863
-0.056700
-0.048591
-0.024265
-0.020210
-0.020210
0.000062
0.008170
0.008170
0.012225
0.028442
0.032497
0.073041
0.105476
0.085204
-0.182386
-0.579717
-0.401324
0.016279
0.214945
0.247380
0.162237
0.077095
0.032497
0.044660
0.024388
0.032497
0.000062
0.004116
-0.003993
-0.020210
-0.032374
-0.028319
-0.012102
-0.008047
-0.024265
-0.040482
-0.048591
-0.052646
-0.056700
-0.072918
-0.097244
-0.081026
-0.064809
-0.068863
-0.076972
-0.068863
-0.048591
-0.060754
-0.044537
-0.008047
0.008170
0.012225
0.000062
0.012225
0.028442
0.020334
0.028442
0.004116
0.000062
0.012225
0.020334
0.028442
0.024388
-0.003993
0.016279
0.028442
0.028442
-0.024265
-0.060754
-0.036428
-0.028319
-0.016156
-0.016156
0.000062
-0.008047
0.020334
0.052769
0.068986
0.068986
0.068986
0.052769
0.052769
0.073041
0.064932
0.064932
-0.178332
-0.502684
-0.206713
0.137911
0.267652
0.320359
0.202781
0.113585
0.073041
0.101422
0.052769
0.060878
0.044660
0.024388
0.036551
0.000062
0.028442
0.024388
-0.016156
0.004116
-0.016156
-0.020210
-0.032374
-0.060754
-0.076972
-0.064809
-0.072918
-0.085081
-0.097244
-0.085081
-0.109407
-0.089135
-0.081026
-0.056700
-0.020210
-0.008047
0.024388
0.028442
0.032497
0.028442
0.036551
0.028442
0.044660
0.044660
0.036551
0.036551
0.032497
0.040606
0.028442
0.008170
-0.020210
-0.072918
-0.064809
-0.081026
-0.056700
-0.048591
-0.048591
-0.020210
-0.008047
-0.012102
-0.003993
-0.016156
-0.008047
-0.008047
0.000062
0.016279
0.044660
0.040606
0.044660
-0.145897
-0.454031
-0.429705
0.044660
0.194673
0.300087
0.247380
0.162237
0.068986
0.036551
0.028442
0.020334
0.020334
-0.008047
-0.003993
-0.012102
0.008170
-0.040482
-0.064809
-0.036428
-0.048591
-0.076972
-0.052646
-0.085081
-0.101298
-0.137788
-0.149951
-0.141842
-0.170223
-0.166169
-0.166169
-0.137788
-0.097244
-0.101298
-0.109407
-0.056700
-0.064809
-0.020210
-0.024265
0.004116
0.012225
0.000062
0.008170
0.000062
0.028442
0.008170
0.028442
0.024388
0.044660
0.024388
0.008170
-0.028319
-0.056700
-0.056700
-0.036428
-0.012102
-0.028319
0.004116
0.036551
0.044660
0.024388
0.048714
0.036551
0.060878
0.056823
0.064932
0.093313
0.125748
0.121693
-0.093190
-0.466194
-0.352671
0.064932
0.291978
0.369012
0.267652
0.186564
0.121693
0.101422
0.097367
0.068986
0.060878
0.052769
0.052769
0.052769
0.052769
0.040606
0.032497
0.036551
0.016279
0.004116
-0.032374
-0.028319
-0.028319
-0.060754
-0.052646
-0.060754
-0.060754
-0.048591
-0.064809
-0.048591
-0.036428
-0.028319
-0.036428
-0.008047
-0.012102
0.004116
-0.008047
0.020334
0.004116
-0.008047
-0.012102
-0.012102
-0.008047
-0.008047
0.004116
-0.003993
0.020334
0.012225
0.020334
0.008170
-0.024265
-0.089135
-0.101298
-0.081026
-0.060754
-0.068863
-0.036428
-0.040482
-0.036428
-0.024265
-0.003993
-0.008047
-0.008047
0.000062
0.000062
0.052769
0.101422
0.125748
-0.093190
-0.563500
-0.490521
-0.036428
0.251434
0.332522
0.231162
0.105476
0.068986
0.068986
0.044660
0.052769
0.044660
0.028442
0.068986
0.032497
0.004116
0.000062
-0.003993
-0.008047
-0.012102
-0.003993
-0.008047
-0.032374
0.004116
-0.036428
-0.040482
-0.040482
-0.048591
-0.052646
-0.064809
-0.040482
-0.044537
-0.052646
-0.044537
-0.036428
-0.028319
-0.020210
-0.020210
-0.016156
-0.028319
-0.044537
-0.020210
-0.024265
-0.024265
-0.024265
-0.008047
0.016279
0.028442
0.032497
0.056823
0.028442
-0.028319
-0.052646
-0.048591
-0.012102
0.004116
0.020334
0.024388
0.024388
0.040606
0.020334
0.032497
0.036551
0.040606
0.056823
0.089258
0.141965
0.198727
0.174401
-0.218876
-0.599989
-0.239148
0.154129
0.389284
0.389284
0.267652
0.154129
0.125748
0.121693
0.101422
0.105476
0.089258
0.081150
0.081150
0.073041
0.068986
0.073041
0.064932
0.085204
0.056823
0.056823
0.044660
0.020334
0.032497
0.008170
0.012225
0.000062
0.000062
0.012225
0.000062
0.000062
0.028442
0.044660
0.052769
0.052769
0.060878
0.077095
0.068986
0.073041
0.073041
0.081150
0.073041
0.073041
0.089258
0.081150
0.085204
0.101422
0.093313
0.105476
0.073041
0.012225
-0.028319
-0.016156
0.008170
0.032497
0.028442
0.044660
0.040606
0.052769
0.073041
0.073041
0.077095
0.040606
0.036551
0.036551
0.093313
0.146020
0.081150
-0.328345
-0.668914
-0.295909
0.125748
0.332522
0.287924
0.198727
0.085204
0.081150
0.068986
0.048714
0.044660
0.040606
0.036551
0.040606
0.028442
0.032497
0.024388
0.012225
0.008170
-0.008047
-0.008047
-0.016156
-0.032374
-0.040482
-0.052646
-0.060754
-0.076972
-0.076972
-0.072918
-0.085081
-0.089135
-0.085081
-0.089135
-0.072918
-0.076972
-0.060754
-0.056700
-0.060754
-0.060754
-0.068863
-0.064809
-0.060754
-0.072918
-0.064809
-0.052646
-0.056700
-0.048591
-0.036428
-0.028319
0.000062
-0.036428
-0.101298
-0.133734
-0.097244
-0.072918
-0.064809
-0.040482
-0.048591
-0.028319
-0.032374
-0.032374
-0.028319
-0.012102
-0.020210
-0.008047
0.028442
0.085204
0.154129
-0.056700
-0.587826
-0.648642
-0.154006
0.218999
0.316305
0.251434
0.121693
0.068986
0.064932
0.040606
0.032497
0.016279
0.032497
0.040606
0.024388
0.028442
0.020334
0.024388
0.024388
0.028442
0.024388
0.004116
-0.016156
0.016279
-0.020210
-0.003993
0.000062
-0.028319
-0.028319
-0.016156
-0.040482
-0.040482
-0.012102
0.000062
0.008170
0.012225
0.020334
0.028442
0.048714
0.048714
0.040606
0.040606
0.052769
0.052769
0.064932
0.056823
0.077095
0.085204
0.081150
0.121693
0.129802
-0.003993
-0.056700
-0.036428
-0.003993
0.012225
0.016279
0.008170
0.004116
-0.003993
-0.003993
-0.003993
-0.003993
-0.016156
-0.012102
0.016279
0.060878
0.141965
-0.085081
-0.604044
-0.709458
-0.113462
0.154129
0.316305
0.247380
0.146020
0.008170
0.000062
-0.028319
-0.036428
-0.032374
-0.040482
-0.044537
-0.064809
-0.068863
-0.064809
-0.076972
-0.081026
-0.081026
-0.097244
-0.085081
-0.097244
-0.093190
-0.101298
-0.105353
-0.072918
-0.089135
-0.060754
-0.064809
-0.072918
-0.056700
-0.044537
-0.044537
-0.036428
-0.032374
-0.016156
-0.012102
-0.003993
0.004116
0.008170
0.012225
0.000062
-0.003993
0.008170
0.012225
0.036551
0.048714
0.048714
0.068986
0.032497
-0.056700
-0.064809
-0.040482
-0.003993
0.004116
0.016279
0.020334
0.012225
0.024388
0.040606
0.048714
0.056823
0.060878
0.056823
0.093313
0.166292
0.247380
-0.020210
-0.620261
-0.685132
-0.105353
0.300087
0.421719
0.344685
0.190618
0.093313
0.068986
0.048714
0.028442
0.016279
-0.003993
-0.020210
-0.028319
-0.036428
-0.036428
-0.052646
-0.044537
-0.044537
-0.056700
-0.024265
-0.044537
-0.032374
-0.028319
-0.020210
-0.016156
-0.032374
-0.012102
-0.028319
-0.040482
-0.040482
-0.016156
-0.020210
-0.024265
-0.020210
-0.012102
-0.024265
-0.016156
0.000062
-0.012102
-0.008047
-0.003993
-0.003993
-0.003993
-0.016156
-0.003993
0.020334
0.032497
0.032497
0.024388
-0.044537
-0.105353
-0.109407
-0.101298
-0.068863
-0.072918
-0.064809
-0.068863
-0.064809
-0.048591
-0.044537
-0.044537
-0.052646
-0.044537
-0.036428
0.044660
0.162237
0.121693
-0.421596
-0.883797
-0.490521
0.052769
0.316305
0.328468
0.259543
0.105476
0.093313
0.077095
0.068986
0.081150
0.060878
0.056823
0.056823
0.060878
0.060878
0.044660
0.040606
0.044660
0.036551
0.048714
0.032497
0.028442
0.032497
0.008170
0.016279
0.004116
0.052769
0.004116
0.012225
-0.003993
0.000062
-0.003993
0.016279
0.016279
0.040606
0.040606
0.052769
0.044660
0.036551
0.040606
0.040606
0.024388
0.012225
0.028442
0.024388
0.032497
0.081150
0.052769
0.044660
0.004116
-0.044537
-0.072918
-0.060754
-0.032374
-0.028319
0.000062
-0.020210
0.008170
0.000062
-0.003993
0.000062
0.000062
0.012225
0.016279
0.048714
0.109530
0.089258
-0.312127
-0.770274
-0.385106
0.150074
0.328468
0.352794
0.263597
0.137911
0.068986
0.081150
0.056823
0.048714
0.044660
0.048714
0.056823
0.032497
0.048714
0.028442
0.028442
0.032497
0.020334
0.024388
0.028442
-0.020210
-0.020210
-0.036428
-0.036428
-0.052646
-0.081026
-0.076972
-0.089135
-0.105353
-0.068863
-0.064809
-0.048591
-0.032374
-0.028319
-0.008047
-0.016156
0.008170
0.004116
0.012225
0.020334
0.000062
0.036551
0.032497
0.016279
0.032497
0.020334
0.036551
0.028442
-0.032374
-0.024265
-0.048591
-0.036428
-0.003993
-0.003993
0.012225
0.012225
0.012225
0.012225
0.020334
0.020334
0.012225
0.012225
0.036551
0.101422
0.166292
0.004116
-0.612152
-0.725676
-0.312127
0.133857
0.279815
0.218999
0.117639
0.081150
0.064932
0.056823
0.044660
0.044660
0.032497
0.089258
0.048714
0.028442
0.036551
0.032497
0.040606
0.040606
0.048714
0.052769
0.036551
0.048714
0.028442
0.036551
0.008170
-0.012102
-0.008047
-0.024265
-0.036428
-0.056700
-0.036428
-0.016156
-0.016156
-0.032374
-0.008047
0.004116
0.016279
0.016279
0.012225
0.024388
0.016279
0.004116
0.012225
0.020334
0.024388
0.028442
0.032497
0.044660
0.064932
0.036551
-0.028319
-0.076972
-0.064809
-0.016156
-0.012102
-0.016156
0.004116
0.000062
0.000062
0.012225
0.016279
0.016279
0.012225
0.016279
0.048714
0.085204
0.146020
-0.032374
-0.482412
-0.543228
-0.093190
0.239271
0.356849
0.243325
0.129802
0.093313
0.068986
0.048714
0.040606
0.036551
0.020334
0.020334
0.008170
0.008170
0.016279
-0.003993
-0.003993
-0.016156
-0.020210
-0.024265
-0.036428
-0.044537
-0.048591
-0.060754
-0.056700
-0.068863
-0.064809
-0.060754
-0.060754
-0.048591
-0.056700
-0.036428
-0.032374
-0.012102
-0.003993
0.004116
0.016279
0.004116
0.016279
0.024388
0.016279
0.016279
0.028442
0.016279
0.016279
0.040606
0.040606
0.064932
0.052769
0.004116
-0.056700
-0.072918
-0.048591
-0.028319
-0.008047
0.008170
0.008170
0.024388
0.032497
0.016279
0.020334
0.020334
0.032497
0.040606
0.105476
0.174401
0.133857
-0.251311
-0.555391
-0.202658
0.137911
0.259543
0.150074
0.101422
0.085204
0.093313
0.077095
0.056823
0.060878
0.044660
0.064932
0.064932
0.044660
0.048714
0.032497
0.036551
0.024388
0.012225
0.032497
0.012225
0.008170
0.004116
-0.016156
-0.008047
-0.040482
-0.056700
-0.036428
-0.048591
-0.040482
-0.032374
-0.060754
-0.040482
-0.044537
-0.032374
-0.028319
0.000062
-0.003993
-0.016156
-0.032374
-0.032374
-0.020210
-0.012102
-0.020210
-0.003993
-0.003993
0.004116
0.004116
-0.003993
-0.040482
-0.097244
-0.093190
-0.081026
-0.068863
-0.036428
-0.028319
-0.040482
-0.028319
-0.008047
-0.008047
0.000062
0.004116
-0.012102
-0.012102
0.040606
0.073041
-0.024265
-0.437813
-0.689186
-0.247257
0.162237
0.324413
0.283869
0.158183
0.040606
0.028442
0.024388
-0.020210
0.004116
0.040606
-0.003993
-0.024265
-0.028319
-0.016156
-0.044537
-0.032374
-0.044537
-0.072918
-0.060754
-0.072918
-0.089135
-0.072918
-0.085081
-0.068863
-0.081026
-0.105353
-0.081026
-0.109407
-0.089135
-0.048591
-0.040482
-0.024265
0.008170
0.040606
0.044660
0.036551
0.056823
0.048714
0.052769
0.056823
0.036551
0.052769
0.060878
0.077095
0.109530
0.068986
0.081150
0.101422
-0.036428
-0.085081
-0.056700
-0.016156
-0.016156
0.000062
0.020334
0.028442
0.028442
0.020334
0.020334
0.032497
0.036551
0.056823
0.077095
0.125748
0.194673
0.000062
-0.518901
-0.587826
-0.052646
0.283869
0.425773
0.340631
0.182509
0.133857
0.081150
0.024388
0.012225
0.032497
0.004116
0.093313
0.016279
0.073041
0.028442
0.008170
0.036551
0.044660
0.032497
0.048714
0.040606
0.016279
0.000062
-0.012102
0.004116
-0.020210
-0.024265
-0.032374
-0.052646
-0.032374
-0.028319
-0.024265
-0.016156
0.004116
0.093313
-0.008047
-0.003993
0.040606
0.032497
0.052769
0.056823
0.044660
0.068986
0.101422
0.064932
0.077095
0.117639
0.081150
0.097367
0.040606
-0.036428
-0.056700
-0.028319
-0.020210
0.000062
0.032497
0.008170
0.020334
0.052769
0.073041
0.073041
0.060878
0.048714
0.073041
0.089258
0.141965
0.186564
-0.170223
-0.672968
-0.494575
0.032497
0.360903
0.369012
0.255489
0.141965
0.109530
0.105476
0.081150
0.089258
0.040606
0.032497
0.036551
0.012225
0.052769
-0.012102
-0.036428
0.004116
0.000062
0.016279
-0.003993
-0.003993
-0.012102
-0.040482
-0.089135
-0.036428
-0.052646
-0.076972
-0.044537
-0.048591
-0.056700
-0.056700
-0.085081
-0.149951
-0.129679
-0.081026
-0.040482
-0.024265
-0.028319
-0.024265
-0.020210
-0.024265
-0.105353
-0.081026
-0.052646
-0.064809
-0.024265
0.008170
-0.044537
-0.036428
-0.016156
-0.072918
-0.174278
-0.133734
-0.125625
-0.072918
-0.036428
0.008170
-0.036428
-0.020210
-0.085081
-0.036428
0.048714
-0.044537
-0.016156
0.077095
0.113585
0.133857
0.012225
-0.599989
-0.745948
-0.113462
0.279815
0.454154
0.259543
0.235217
0.085204
-0.060754
-0.052646
0.004116
0.048714
0.052769
0.064932
0.012225
0.012225
-0.121570
-0.012102
-0.036428
-0.093190
0.016279
0.000062
-0.060754
-0.020210
-0.182386
-0.101298
-0.064809
-0.085081
-0.149951
-0.068863
-0.109407
-0.064809
-0.024265
-0.016156
-0.012102
-0.036428
-0.085081
-0.040482
-0.170223
-0.052646
0.024388
0.052769
-0.008047
-0.072918
0.028442
0.125748
0.032497
-0.020210
-0.024265
0.036551
-0.028319
-0.008047
-0.081026
-0.113462
-0.040482
0.016279
0.024388
-0.016156
-0.081026
-0.024265
-0.052646
0.008170
0.028442
0.044660
0.178455
0.125748
0.032497
0.093313
0.105476
-0.348617
-0.750002
-0.316181
0.162237
0.498752
0.425773
0.316305
0.129802
0.101422
0.101422
0.125748
0.125748
0.093313
0.125748
0.166292
-0.024265
0.060878
0.036551
0.060878
0.044660
0.068986
-0.008047
0.012225
0.048714
0.052769
0.048714
0.089258
0.121693
0.105476
0.121693
0.113585
0.146020
0.113585
0.158183
0.198727
0.198727
0.223053
0.231162
0.202781
0.186564
0.178455
0.223053
0.125748
0.166292
0.133857
0.146020
0.141965
0.150074
0.154129
0.121693
0.150074
0.012225
0.000062
0.012225
0.068986
0.044660
0.068986
0.077095
0.081150
0.089258
0.040606
0.040606
0.008170
-0.003993
-0.097244
-0.081026
-0.085081
-0.060754
-0.389161
-0.891906
-0.758111
-0.113462
0.186564
0.255489
0.125748
-0.036428
-0.239148
-0.308073
-0.304018
-0.287801
-0.218876
-0.198604
-0.137788
-0.137788
-0.076972
-0.125625
-0.174278
-0.149951
-0.117516
-0.113462
-0.056700
-0.097244
-0.105353
-0.101298
-0.076972
-0.081026
-0.109407
-0.093190
-0.190495
-0.178332
-0.182386
-0.198604
-0.166169
-0.149951
-0.137788
-0.109407
-0.125625
-0.076972
-0.093190
-0.056700
-0.089135
-0.068863
-0.072918
-0.076972
-0.072918
-0.032374
-0.016156
0.008170
-0.012102
-0.020210
-0.089135
-0.121570
-0.129679
-0.085081
-0.060754
-0.056700
-0.044537
-0.060754
-0.056700
-0.060754
-0.076972
-0.056700
-0.064809
-0.060754
-0.012102
0.077095
0.178455
0.056823
-0.409433
-0.636479
-0.194550
0.231162
0.421719
0.356849
0.251434
0.150074
0.141965
0.117639
0.105476
0.117639
0.101422
0.101422
0.101422
0.077095
0.125748
0.052769
0.060878
0.044660
0.036551
0.020334
0.008170
0.004116
-0.008047
-0.012102
-0.008047
-0.003993
0.004116
0.012225
0.020334
0.032497
0.040606
0.056823
0.073041
0.081150
0.093313
0.097367
0.101422
0.097367
0.101422
0.097367
0.085204
0.089258
0.085204
0.085204
0.077095
0.089258
0.093313
0.085204
0.097367
0.040606
-0.044537
-0.052646
-0.036428
-0.008047
-0.016156
-0.008047
0.000062
0.016279
0.020334
0.024388
0.020334
0.036551
0.024388
0.036551
0.097367
0.150074
0.174401
-0.145897
-0.628370
-0.405378
0.077095
0.332522
0.437936
0.283869
0.141965
0.089258
0.093313
0.056823
0.060878
0.064932
0.056823
0.077095
0.040606
0.036551
0.028442
0.024388
0.036551
0.012225
0.004116
0.008170
0.008170
-0.008047
-0.032374
-0.032374
-0.036428
-0.044537
-0.028319
-0.056700
-0.056700
-0.048591
-0.020210
-0.020210
-0.008047
0.000062
0.020334
0.016279
0.024388
0.020334
0.024388
0.060878
0.044660
0.032497
0.040606
0.036551
0.064932
0.060878
0.073041
0.073041
0.052769
0.012225
-0.064809
-0.040482
0.008170
0.020334
0.024388
0.020334
0.028442
0.064932
0.048714
0.068986
0.081150
0.093313
0.060878
0.097367
0.129802
0.190618
-0.068863
-0.567554
-0.474303
0.004116
0.283869
0.377121
0.275761
0.154129
0.117639
0.073041
0.068986
0.068986
0.012225
0.000062
0.020334
-0.003993
0.008170
0.008170
0.012225
-0.028319
-0.024265
-0.024265
-0.040482
-0.056700
-0.036428
-0.060754
-0.089135
-0.048591
-0.048591
-0.105353
-0.060754
-0.072918
-0.097244
-0.101298
-0.072918
-0.056700
-0.064809
-0.044537
-0.048591
-0.036428
-0.040482
-0.052646
-0.028319
-0.044537
-0.040482
-0.024265
-0.036428
-0.020210
-0.012102
-0.012102
0.020334
-0.044537
-0.133734
-0.158060
-0.137788
-0.109407
-0.105353
-0.085081
-0.085081
-0.085081
-0.068863
-0.076972
-0.064809
-0.052646
-0.056700
-0.040482
-0.008047
0.036551
0.133857
-0.060754
-0.543228
-0.547282
-0.076972
0.223053
0.344685
0.279815
0.170346
0.073041
0.060878
0.036551
0.036551
0.044660
0.020334
0.048714
0.028442
0.032497
0.032497
0.024388
0.040606
0.016279
0.016279
0.012225
-0.008047
0.004116
0.004116
-0.016156
-0.003993
-0.012102
0.000062
-0.003993
-0.008047
0.004116
-0.003993
0.012225
0.032497
0.044660
0.052769
0.056823
0.060878
0.077095
0.064932
0.077095
0.073041
0.073041
0.073041
0.052769
0.073041
0.085204
0.097367
0.113585
0.121693
0.089258
-0.016156
-0.028319
-0.003993
0.008170
0.016279
0.036551
0.036551
0.048714
0.044660
0.036551
0.060878
0.044660
0.044660
0.060878
0.093313
0.146020
0.178455
-0.121570
-0.531064
-0.425650
0.040606
0.287924
0.340631
0.239271
0.121693
0.089258
0.077095
0.068986
0.052769
0.056823
0.028442
0.036551
0.040606
0.032497
0.016279
0.004116
-0.008047
-0.024265
-0.032374
-0.040482
-0.048591
-0.044537
-0.060754
-0.056700
-0.072918
-0.056700
-0.076972
-0.085081
-0.085081
-0.081026
-0.081026
-0.076972
-0.072918
-0.056700
-0.068863
-0.064809
-0.068863
-0.048591
-0.048591
-0.056700
-0.040482
-0.036428
-0.036428
-0.044537
-0.028319
-0.016156
-0.003993
0.012225
0.028442
-0.012102
-0.089135
-0.109407
-0.085081
-0.064809
-0.060754
-0.048591
-0.028319
-0.032374
-0.040482
-0.020210
-0.016156
-0.016156
-0.003993
0.004116
0.060878
0.129802
0.150074
-0.263474
-0.766220
-0.587826
-0.068863
0.227108
0.259543
0.190618
0.068986
0.028442
0.044660
0.028442
0.040606
0.024388
0.020334
0.012225
-0.003993
0.008170
0.000062
0.000062
-0.012102
-0.016156
0.000062
-0.016156
-0.020210
-0.016156
-0.036428
-0.028319
-0.028319
-0.028319
-0.020210
-0.036428
-0.032374
-0.028319
-0.024265
-0.012102
-0.008047
-0.008047
-0.008047
0.000062
0.000062
0.008170
0.004116
0.008170
0.016279
0.032497
0.036551
0.036551
0.036551
0.044660
0.068986
0.077095
0.101422
0.085204
0.012225
-0.044537
-0.024265
-0.012102
0.016279
0.020334
0.020334
0.028442
0.032497
0.040606
0.036551
0.032497
0.040606
0.044660
0.081150
0.137911
0.239271
0.097367
-0.466194
-0.660805
-0.259420
0.133857
0.291978
0.255489
0.137911
0.097367
0.081150
0.064932
0.052769
0.048714
0.044660
0.048714
0.032497
0.024388
0.020334
0.004116
0.012225
0.004116
-0.012102
0.004116
0.000062
0.004116
0.000062
-0.003993
0.000062
-0.020210
-0.008047
0.000062
-0.008047
-0.012102
-0.016156
-0.020210
-0.016156
-0.032374
-0.016156
-0.020210
-0.008047
-0.003993
0.000062
0.004116
0.012225
0.008170
0.008170
0.004116
0.004116
0.008170
0.028442
0.044660
0.056823
0.060878
-0.012102
-0.081026
-0.081026
-0.052646
-0.036428
-0.028319
-0.036428
-0.008047
-0.012102
-0.008047
0.016279
0.004116
0.000062
-0.003993
0.028442
0.093313
0.198727
0.105476
-0.413487
-0.717567
-0.304018
0.133857
0.336577
0.283869
0.186564
0.085204
0.089258
0.068986
0.060878
0.060878
0.044660
0.044660
0.024388
0.020334
0.016279
0.016279
0.000062
0.008170
-0.008047
-0.008047
-0.024265
-0.012102
-0.016156
-0.012102
0.004116
0.000062
0.000062
0.004116
-0.008047
-0.016156
-0.020210
-0.028319
-0.020210
-0.012102
-0.003993
0.000062
0.004116
0.008170
0.012225
0.020334
0.016279
0.012225
0.016279
0.012225
0.020334
0.032497
0.040606
0.048714
0.052769
0.068986
0.036551
-0.020210
-0.052646
-0.040482
-0.012102
-0.003993
0.000062
0.020334
0.020334
0.020334
0.016279
0.024388
0.028442
0.020334
0.040606
0.073041
0.141965
0.186564
-0.129679
-0.656751
-0.587826
-0.113462
0.214945
0.267652
0.210890
0.109530
0.093313
0.081150
0.068986
0.048714
0.064932
0.060878
0.064932
0.064932
0.060878
0.056823
0.032497
0.040606
0.032497
0.028442
0.004116
0.016279
0.016279
0.016279
0.024388
0.028442
0.044660
0.032497
0.036551
0.024388
0.012225
0.000062
0.008170
0.000062
-0.003993
-0.003993
-0.003993
-0.008047
-0.012102
-0.012102
-0.016156
-0.016156
-0.024265
-0.020210
-0.028319
-0.036428
-0.036428
-0.024265
-0.012102
-0.012102
0.008170
-0.032374
-0.121570
-0.125625
-0.097244
-0.089135
-0.076972
-0.060754
-0.064809
-0.064809
-0.056700
-0.056700
-0.044537
-0.036428
-0.040482
-0.024265
0.052769
0.182509
0.198727
-0.312127
-0.859471
-0.551336
-0.044537
0.271706
0.291978
0.210890
0.089258
0.068986
0.056823
0.036551
0.040606
0.016279
0.012225
0.004116
0.000062
0.000062
-0.012102
-0.008047
-0.003993
-0.040482
-0.024265
-0.024265
-0.032374
-0.028319
-0.036428
-0.024265
-0.020210
-0.020210
-0.016156
-0.020210
-0.036428
-0.032374
-0.028319
-0.008047
0.000062
0.008170
0.016279
0.000062
0.032497
0.028442
0.024388
0.028442
0.028442
0.028442
0.020334
0.016279
0.028442
0.020334
0.032497
0.048714
0.056823
0.081150
0.056823
-0.016156
-0.064809
-0.040482
-0.024265
-0.003993
0.008170
0.008170
0.028442
0.028442
0.044660
0.036551
0.044660
0.056823
0.056823
0.093313
0.129802
0.166292
-0.032374
-0.474303
-0.421596
0.000062
0.259543
0.324413
0.247380
0.158183
0.133857
0.121693
0.101422
0.101422
0.089258
0.081150
0.085204
0.073041
0.077095
0.068986
0.060878
0.064932
0.056823
0.044660
0.024388
0.004116
0.020334
-0.003993
-0.008047
-0.008047
-0.012102
-0.012102
-0.028319
-0.024265
-0.028319
-0.024265
-0.012102
-0.003993
-0.012102
0.004116
-0.016156
-0.003993
0.004116
-0.003993
-0.012102
-0.024265
-0.032374
-0.028319
-0.044537
-0.032374
-0.040482
-0.028319
-0.012102
-0.012102
-0.016156
-0.060754
-0.121570
-0.109407
-0.089135
-0.068863
-0.052646
-0.040482
-0.032374
-0.016156
-0.020210
-0.012102
-0.020210
-0.016156
-0.020210
0.000062
0.036551
0.081150
0.008170
-0.360780
-0.636479
-0.198604
0.129802
0.275761
0.255489
0.158183
0.068986
0.064932
0.044660
0.048714
0.056823
0.048714
0.048714
0.044660
0.032497
0.060878
0.032497
0.020334
0.012225
0.012225
0.004116
0.000062
-0.016156
-0.012102
-0.028319
-0.024265
-0.024265
-0.040482
-0.032374
-0.052646
-0.044537
-0.056700
-0.048591
-0.028319
-0.028319
-0.024265
-0.024265
-0.040482
-0.036428
-0.036428
-0.036428
-0.020210
-0.028319
-0.036428
-0.032374
-0.040482
-0.024265
-0.024265
-0.016156
0.000062
-0.024265
-0.056700
-0.072918
-0.068863
-0.032374
-0.032374
0.012225
0.008170
0.008170
0.000062
0.008170
0.024388
0.020334
0.012225
0.012225
0.040606
0.068986
0.064932
-0.093190
-0.441868
-0.421596
0.024388
0.235217
0.316305
0.251434
0.166292
0.081150
0.068986
0.064932
0.052769
0.056823
0.044660
0.064932
0.068986
0.060878
0.056823
0.040606
0.052769
0.024388
0.008170
0.016279
0.004116
-0.020210
-0.024265
-0.044537
-0.036428
-0.044537
-0.044537
-0.064809
-0.068863
-0.056700
-0.052646
-0.044537
-0.032374
-0.016156
-0.008047
0.000062
0.000062
-0.003993
-0.016156
0.000062
0.000062
0.000062
-0.024265
-0.028319
-0.036428
-0.036428
-0.032374
-0.028319
-0.032374
-0.068863
-0.105353
-0.101298
-0.076972
-0.056700
-0.052646
-0.032374
-0.020210
-0.028319
-0.028319
-0.020210
-0.012102
-0.016156
-0.012102
-0.003993
0.036551
0.060878
-0.032374
-0.486466
-0.786492
-0.372943
0.056823
0.206836
0.158183
0.097367
0.040606
0.036551
0.024388
0.020334
0.028442
0.012225
0.016279
0.020334
0.008170
0.016279
0.008170
0.016279
0.020334
0.016279
0.028442
0.032497
0.036551
0.048714
0.036551
0.036551
0.036551
0.036551
0.036551
0.024388
0.016279
0.012225
0.016279
0.020334
0.016279
0.024388
0.028442
0.024388
0.044660
0.036551
0.020334
0.028442
0.040606
0.040606
0.036551
0.040606
0.028442
0.020334
0.036551
0.044660
0.040606
0.060878
0.024388
-0.016156
-0.024265
-0.008047
0.004116
0.028442
0.056823
0.044660
0.052769
0.068986
0.085204
0.085204
0.089258
0.077095
0.085204
0.133857
0.194673
0.109530
-0.376997
-0.762165
-0.421596
0.085204
0.296033
0.231162
0.137911
0.121693
0.105476
0.121693
0.081150
0.081150
0.097367
0.093313
0.073041
0.064932
0.097367
0.060878
0.073041
0.089258
0.081150
0.089258
0.105476
0.089258
0.121693
0.129802
0.129802
0.129802
0.146020
0.150074
0.121693
0.113585
0.089258
0.077095
0.093313
0.081150
0.052769
0.044660
0.040606
0.028442
0.012225
-0.003993
-0.016156
-0.028319
-0.024265
-0.032374
-0.044537
-0.048591
-0.068863
-0.076972
-0.081026
-0.072918
-0.081026
-0.081026
-0.093190
-0.129679
-0.182386
-0.194550
-0.186441
-0.145897
-0.149951
-0.141842
-0.137788
-0.129679
-0.125625
-0.117516
-0.109407
-0.101298
-0.089135
-0.060754
0.012225
0.068986
-0.129679
-0.668914
-0.827035
-0.312127
0.085204
0.210890
0.166292
0.085204
0.056823
0.052769
0.044660
0.048714
0.052769
0.044660
0.060878
0.064932
0.052769
0.048714
0.056823
0.056823
0.064932
0.064932
0.081150
0.073041
0.089258
0.105476
0.093313
0.101422
0.109530
0.093313
0.089258
0.056823
0.052769
0.032497
0.024388
0.028442
0.016279
0.028442
0.032497
0.040606
0.060878
0.044660
0.056823
0.056823
0.060878
0.073041
0.073041
0.068986
0.064932
0.060878
0.060878
0.052769
0.052769
0.052769
0.064932
0.064932
0.068986
0.020334
-0.020210
-0.016156
-0.003993
0.028442
0.024388
0.032497
0.028442
0.032497
0.040606
0.040606
0.028442
0.032497
0.024388
0.052769
0.101422
0.158183
-0.056700
-0.608098
-0.668914
-0.174278
0.174401
0.243325
0.178455
0.097367
0.064932
0.060878
0.040606
0.044660
0.036551
0.032497
0.028442
0.012225
-0.003993
-0.008047
-0.012102
-0.028319
-0.028319
-0.044537
-0.028319
-0.036428
-0.028319
-0.032374
-0.036428
-0.020210
-0.024265
-0.028319
-0.028319
-0.040482
-0.032374
-0.040482
-0.024265
-0.003993
0.000062
0.020334
0.020334
0.036551
0.052769
0.073041
0.060878
0.077095
0.085204
0.081150
0.073041
0.068986
0.068986
0.048714
0.048714
0.044660
0.040606
0.028442
0.012225
-0.028319
-0.101298
-0.081026
-0.060754
-0.052646
-0.040482
0.024388
-0.008047
0.000062
-0.008047
0.008170
0.016279
0.024388
0.028442
0.052769
0.089258
0.125748
-0.024265
-0.393215
-0.518901
-0.016156
0.218999
0.312250
0.251434
0.158183
0.068986
0.048714
0.036551
0.008170
0.008170
-0.016156
0.000062
-0.012102
-0.016156
-0.020210
-0.028319
-0.020210
-0.032374
-0.040482
-0.040482
-0.068863
-0.072918
-0.072918
-0.068863
-0.068863
-0.072918
-0.081026
-0.072918
-0.101298
-0.101298
-0.101298
-0.089135
-0.081026
-0.068863
-0.056700
-0.044537
-0.044537
-0.032374
-0.056700
-0.040482
-0.036428
-0.052646
-0.036428
-0.040482
-0.044537
-0.060754
-0.060754
-0.060754
-0.056700
-0.044537
-0.040482
-0.024265
-0.008047
0.000062
-0.056700
-0.109407
-0.121570
-0.105353
-0.076972
-0.052646
-0.044537
-0.036428
-0.036428
-0.032374
-0.020210
-0.016156
-0.020210
-0.012102
0.004116
0.052769
0.121693
0.068986
-0.356725
-0.660805
-0.336453
0.068986
0.251434
0.186564
0.097367
0.048714
0.036551
0.040606
0.016279
0.020334
0.012225
0.020334
0.004116
-0.003993
-0.008047
-0.003993
-0.008047
-0.008047
-0.020210
-0.020210
-0.040482
-0.040482
-0.036428
-0.048591
-0.032374
-0.052646
-0.044537
-0.032374
-0.052646
-0.048591
-0.040482
-0.040482
-0.032374
-0.028319
-0.016156
-0.016156
-0.003993
0.000062
0.000062
0.008170
0.008170
0.004116
0.016279
0.008170
0.020334
0.012225
0.000062
0.012225
0.016279
0.040606
0.044660
0.060878
0.024388
-0.036428
-0.085081
-0.068863
-0.040482
-0.036428
-0.003993
-0.008047
0.004116
-0.016156
-0.012102
-0.003993
0.004116
0.000062
0.004116
0.016279
0.048714
0.121693
0.020334
-0.385106
-0.555391
-0.125625
0.178455
0.308196
0.231162
0.137911
0.060878
0.060878
0.040606
0.036551
0.036551
0.012225
0.024388
0.028442
0.016279
0.028442
0.000062
0.008170
0.000062
-0.003993
-0.024265
-0.028319
-0.040482
-0.048591
-0.064809
-0.072918
-0.064809
-0.072918
-0.064809
-0.060754
-0.068863
-0.056700
-0.048591
-0.020210
-0.020210
-0.003993
0.008170
0.016279
0.012225
0.024388
0.028442
0.028442
0.032497
0.028442
0.020334
0.028442
0.024388
0.024388
0.028442
0.044660
0.044660
0.060878
0.068986
0.036551
-0.036428
-0.056700
-0.040482
-0.020210
0.000062
0.016279
0.028442
0.000062
0.048714
0.024388
0.036551
0.032497
0.028442
0.028442
0.068986
0.085204
0.129802
-0.048591
-0.494575
-0.490521
-0.003993
0.231162
0.332522
0.214945
0.129802
0.068986
0.056823
0.036551
0.032497
0.032497
0.020334
0.028442
0.008170
0.000062
0.000062
-0.008047
-0.012102
-0.016156
-0.016156
-0.024265
-0.036428
-0.028319
-0.052646
-0.044537
-0.036428
-0.052646
-0.040482
-0.052646
-0.052646
-0.040482
-0.024265
-0.016156
0.004116
0.004116
0.016279
0.020334
0.028442
0.024388
0.016279
0.020334
0.016279
0.008170
0.016279
0.012225
0.008170
-0.003993
-0.003993
-0.003993
-0.020210
-0.012102
0.016279
0.024388
0.032497
-0.012102
-0.064809
-0.097244
-0.072918
-0.060754
-0.044537
-0.044537
-0.040482
-0.028319
-0.032374
-0.032374
-0.020210
-0.024265
-0.016156
-0.012102
0.048714
0.101422
0.085204
-0.279692
-0.729730
-0.543228
-0.052646
0.231162
0.190618
0.113585
0.068986
0.052769
0.044660
0.032497
0.028442
0.024388
0.020334
0.016279
0.008170
0.016279
0.004116
-0.008047
0.012225
0.008170
-0.003993
0.000062
-0.003993
0.000062
-0.008047
0.000062
-0.003993
-0.008047
0.004116
-0.012102
-0.003993
-0.003993
-0.008047
0.008170
0.008170
0.008170
0.012225
0.028442
0.040606
0.028442
0.036551
0.032497
0.024388
0.024388
0.028442
0.020334
0.024388
0.032497
0.032497
0.032497
0.032497
0.044660
0.040606
0.044660
0.056823
0.056823
0.073041
0.040606
-0.020210
-0.040482
-0.028319
-0.003993
0.004116
0.028442
0.024388
0.024388
0.028442
0.036551
0.032497
0.036551
0.048714
0.056823
0.089258
0.146020
0.162237
-0.170223
-0.644588
-0.535119
-0.024265
0.283869
0.271706
0.182509
0.113585
0.101422
0.093313
0.081150
0.081150
0.077095
0.064932
0.068986
0.056823
0.056823
0.044660
0.040606
0.028442
0.016279
0.020334
0.020334
0.020334
0.008170
0.012225
0.012225
-0.003993
-0.016156
-0.016156
-0.012102
-0.032374
-0.024265
-0.020210
-0.012102
-0.003993
-0.003993
0.016279
0.008170
0.012225
0.008170
0.008170
0.012225
0.008170
0.004116
0.008170
0.008170
0.004116
0.008170
0.016279
0.008170
0.012225
0.008170
0.008170
0.008170
0.008170
0.024388
0.040606
0.048714
0.056823
-0.012102
-0.060754
-0.044537
-0.040482
-0.020210
-0.012102
-0.003993
-0.003993
0.004116
0.004116
0.012225
0.012225
0.032497
0.020334
0.040606
0.097367
0.170346
0.101422
-0.332399
-0.587826
-0.214821
0.162237
0.332522
0.263597
0.166292
0.085204
0.077095
0.073041
0.060878
0.056823
0.044660
0.052769
0.044660
0.024388
0.032497
0.012225
0.008170
0.000062
0.000062
0.004116
-0.020210
-0.024265
-0.024265
-0.040482
-0.040482
-0.060754
-0.048591
-0.056700
-0.056700
-0.060754
-0.052646
-0.044537
-0.036428
-0.036428
-0.016156
-0.020210
-0.012102
0.000062
0.000062
0.000062
0.000062
-0.003993
0.000062
-0.012102
-0.016156
-0.003993
-0.020210
-0.012102
-0.003993
-0.012102
-0.003993
-0.012102
0.000062
-0.008047
0.004116
0.020334
0.032497
0.008170
-0.068863
-0.101298
-0.076972
-0.060754
-0.036428
0.004116
0.032497
0.044660
0.032497
-0.060754
-0.097244
-0.210767
-0.462140
-0.652696
-0.839199
-1.033810
-1.187877
-1.264910
-1.341944
-1.066245
-0.376997
-0.003993
0.097367
0.141965
0.178455
0.194673
0.227108
0.239271
0.251434
0.287924
0.324413
0.352794
0.381175
0.401447
0.450100
0.478480
0.510916
0.527133
0.555514
0.567677
0.559568
0.543351
0.519024
0.462263
0.417665
0.356849
0.287924
0.214945
0.150074
0.085204
0.040606
0.004116
-0.016156
-0.028319
-0.040482
-0.032374
-0.048591
-0.044537
-0.048591
-0.044537
-0.044537
-0.040482
-0.040482
-0.044537
-0.040482
-0.040482
-0.044537
-0.048591
-0.048591
-0.052646
-0.052646
-0.056700
-0.052646
-0.056700
-0.056700
-0.052646
-0.068863
-0.056700
-0.060754
-0.044537
-0.036428
-0.020210
0.000062
-0.024265
-0.117516
-0.129679
-0.121570
-0.109407
-0.093190
-0.076972
-0.081026
-0.076972
-0.064809
-0.060754
-0.060754
-0.044537
-0.036428
-0.032374
0.008170
0.044660
0.097367
-0.105353
-0.571608
-0.486466
-0.036428
0.243325
0.300087
0.190618
0.081150
0.044660
0.048714
0.024388
0.032497
0.012225
0.012225
0.020334
-0.003993
0.008170
0.000062
-0.012102
-0.008047
-0.028319
-0.024265
-0.032374
-0.040482
-0.044537
-0.056700
-0.060754
-0.072918
-0.076972
-0.068863
-0.081026
-0.076972
-0.064809
-0.068863
-0.048591
-0.040482
-0.040482
-0.008047
0.004116
0.004116
0.016279
0.020334
0.032497
0.024388
0.016279
0.028442
0.024388
0.028442
0.028442
0.024388
0.028442
0.028442
0.028442
0.028442
0.020334
0.032497
0.024388
0.032497
0.048714
0.048714
0.068986
0.077095
0.089258
0.004116
-0.040482
-0.036428
-0.012102
0.004116
0.020334
0.024388
0.032497
0.028442
0.024388
0.036551
0.044660
0.040606
0.036551
0.064932
0.121693
0.174401
0.105476
-0.291855
-0.579717
-0.198604
0.194673
0.369012
0.324413
0.223053
0.129802
0.109530
0.097367
0.077095
0.068986
0.077095
0.068986
0.060878
0.056823
0.060878
0.044660
0.044660
0.056823
0.024388
0.024388
0.016279
0.012225
0.008170
-0.008047
-0.020210
-0.020210
-0.020210
-0.016156
-0.016156
-0.012102
-0.024265
-0.016156
0.008170
0.012225
0.028442
0.032497
0.032497
0.036551
0.040606
0.048714
0.052769
0.040606
0.052769
0.044660
0.044660
0.044660
0.040606
0.040606
0.044660
0.040606
0.040606
0.020334
0.024388
0.024388
0.032497
0.032497
0.044660
0.052769
0.060878
0.073041
0.064932
-0.032374
-0.048591
-0.044537
-0.024265
-0.008047
0.012225
0.008170
0.004116
0.008170
0.016279
0.012225
0.012225
0.024388
0.016279
0.060878
0.101422
0.158183
0.016279
-0.454031
-0.583772
-0.145897
0.223053
0.328468
0.251434
0.129802
0.093313
0.081150
0.056823
0.056823
0.056823
0.040606
0.048714
0.036551
0.040606
0.032497
0.004116
0.008170
0.004116
0.000062
0.004116
0.000062
-0.016156
-0.016156
-0.032374
-0.024265
-0.032374
-0.040482
-0.044537
-0.060754
-0.056700
-0.052646
-0.048591
-0.044537
-0.032374
-0.024265
-0.012102
-0.016156
-0.016156
-0.016156
-0.016156
-0.024265
-0.032374
-0.036428
-0.044537
-0.048591
-0.052646
-0.060754
-0.064809
-0.060754
-0.068863
-0.068863
-0.076972
-0.081026
-0.072918
-0.076972
-0.068863
-0.072918
-0.068863
-0.072918
-0.076972
-0.060754
-0.044537
-0.044537
-0.016156
-0.052646
-0.133734
-0.158060
-0.141842
-0.121570
-0.113462
-0.109407
-0.113462
-0.113462
-0.105353
-0.109407
-0.101298
-0.101298
-0.101298
-0.105353
-0.064809
-0.024265
0.048714
-0.174278
-0.721621
-0.701349
-0.243202
0.081150
0.178455
0.117639
-0.024265
-0.068863
-0.072918
-0.085081
-0.081026
-0.081026
-0.093190
-0.076972
-0.076972
-0.072918
-0.072918
-0.081026
-0.064809
-0.064809
-0.064809
-0.060754
-0.064809
-0.056700
-0.052646
-0.044537
-0.036428
-0.036428
-0.020210
-0.028319
-0.028319
-0.024265
-0.036428
-0.016156
-0.012102
-0.016156
-0.003993
-0.012102
-0.003993
0.008170
0.028442
0.056823
0.064932
0.068986
0.081150
0.064932
